Frequency(Hz),   Magnitude(dB)
   11.804, -20.940168
   11.929, -21.068146
   12.056, -21.268616
   12.184, -21.477699
   12.314, -21.685883
   12.445, -21.893242
   12.578, -22.099895
   12.711, -22.305944
   12.847, -22.511492
   12.983, -22.716494
   13.122, -22.920719
   13.261, -23.123919
   13.402, -23.325964
   13.545, -23.526947
   13.689, -23.726955
   13.835, -23.926046
   13.982, -24.124266
   14.131, -24.321625
   14.281, -24.517929
   14.433, -24.712912
   14.587, -24.906282
   14.742, -25.097954
   14.899, -25.288015
   15.057, -25.476572
   15.217, -25.663610
   15.379, -25.848955
   15.543, -26.032404
   15.708, -26.213768
   15.875, -26.392929
   16.044, -26.569754
   16.215, -26.744162
   16.388, -26.916143
   16.562, -27.085690
   16.738, -27.252687
   16.916, -27.416815
   17.096, -27.577726
   17.278, -27.735228
   17.462, -27.889225
   17.648, -28.039621
   17.836, -28.186161
   18.025, -28.328527
   18.217, -28.466436
   18.411, -28.599758
   18.607, -28.728413
   18.805, -28.852278
   19.005, -28.971256
   19.207, -29.085148
   19.412, -29.193432
   19.618, -29.295507
   19.827, -29.391060
   20.038, -29.480074
   20.251, -29.562433
   20.467, -29.637804
   20.684, -29.705784
   20.905, -29.766054
   21.127, -29.818405
   21.352, -29.862604
   21.579, -29.898224
   21.809, -29.924686
   22.041, -29.941425
   22.275, -29.947971
   22.512, -29.943893
   22.752, -29.928806
   22.994, -29.902409
   23.239, -29.864256
   23.486, -29.812651
   23.736, -29.745344
   23.988, -29.660578
   24.244, -29.558022
   24.501, -29.437981
   24.762, -29.300755
   25.026, -29.146601
   25.292, -28.975880
   25.561, -28.789133
   25.833, -28.586981
   26.108, -28.370033
   26.386, -28.138641
   26.667, -27.893167
   26.950, -27.634386
   27.237, -27.363447
   27.527, -27.081432
   27.820, -26.789108
   28.116, -26.487255
   28.415, -26.176828
   28.717, -25.859034
   29.023, -25.535177
   29.332, -25.206659
   29.644, -24.874895
   29.959, -24.541420
   30.278, -24.207829
   30.600, -23.875584
   30.926, -23.546194
   31.255, -23.221605
   31.587, -22.904087
   31.924, -22.595901
   32.263, -22.299196
   32.607, -22.016230
   32.953, -21.749399
   33.304, -21.501272
   33.658, -21.274630
   34.017, -21.072435
   34.379, -20.897980
   34.744, -20.755472
   35.114, -20.655609
   35.488, -20.596260
   35.865, -20.568302
   36.247, -20.556524
   36.633, -20.557760
   37.022, -20.571190
   37.416, -20.595839
   37.815, -20.630686
   38.217, -20.675007
   38.624, -20.728214
   39.035, -20.789618
   39.450, -20.858162
   39.870, -20.932564
   40.294, -21.011492
   40.723, -21.093599
   41.156, -21.177563
   41.594, -21.261919
   42.036, -21.344988
   42.484, -21.424906
   42.936, -21.499743
   43.393, -21.567671
   43.854, -21.626783
   44.321, -21.674980
   44.793, -21.709902
   45.269, -21.729057
   45.751, -21.729956
   46.238, -21.711096
   46.730, -21.680876
   47.227, -21.645260
   47.730, -21.603994
   48.237, -21.548134
   48.751, -21.474022
   49.269, -21.382694
   49.794, -21.275993
   50.323, -21.155918
   50.859, -21.024395
   51.400, -20.883358
   51.947, -20.734846
   52.500, -20.581030
   53.058, -20.424212
   53.623, -20.267015
   54.194, -20.112665
   54.770, -19.964670
   55.353, -19.826160
   55.942, -19.699800
   56.537, -19.588488
   57.139, -19.495947
   57.747, -19.428526
   58.361, -19.414780
   58.982, -19.470762
   59.610, -19.588333
   60.244, -19.733627
   60.885, -19.887281
   61.533, -20.046650
   62.188, -20.210649
   62.850, -20.378633
   63.518, -20.549995
   64.194, -20.724106
   64.877, -20.900293
   65.568, -21.077826
   66.265, -21.255760
   66.970, -21.433052
   67.683, -21.608612
   68.403, -21.781569
   69.131, -21.951283
   69.867, -22.119461
   70.610, -22.290096
   71.361, -22.464485
   72.121, -22.640806
   72.888, -22.815620
   73.664, -22.988712
   74.448, -23.160223
   75.240, -23.330294
   76.040, -23.498957
   76.849, -23.665926
   77.667, -23.830877
   78.494, -23.993605
   79.329, -24.154245
   80.173, -24.312958
   81.026, -24.463440
   81.888, -24.533453
   82.759, -24.482262
   83.640, -24.315958
   84.530, -24.104202
   85.430, -23.870518
   86.339, -23.620792
   87.257, -23.359392
   88.186, -23.091043
   89.124, -22.821283
   90.072, -22.556332
   91.031, -22.302849
   91.999, -22.067945
   92.978, -21.854958
   93.968, -21.653662
   94.968, -21.456755
   95.978, -21.261595
   96.999, -21.074430
   98.032, -20.896049
   99.075, -20.726780
  100.129, -20.567158
  101.194, -20.417698
  102.271, -20.278896
  103.359, -20.151382
  104.459, -20.038818
  105.571, -19.957933
  106.694, -19.910267
  107.829, -19.889378
  108.977, -19.878584
  110.136, -19.876930
  111.308, -19.884583
  112.492, -19.901621
  113.689, -19.928095
  114.899, -19.964191
  116.122, -20.010460
  117.357, -20.067823
  118.606, -20.134035
  119.868, -20.205698
  121.144, -20.279673
  122.433, -20.356007
  123.735, -20.434843
  125.052, -20.515936
  126.383, -20.598869
  127.727, -20.682444
  129.087, -20.764601
  130.460, -20.846266
  131.848, -20.930120
  133.251, -21.019377
  134.669, -21.113281
  136.102, -21.209921
  137.550, -21.307741
  139.014, -21.408298
  140.493, -21.531527
  141.988, -21.702587
  143.499, -21.937004
  145.026, -22.223192
  146.569, -22.538208
  148.129, -22.856670
  149.705, -23.149368
  151.298, -23.364668
  152.908, -23.430670
  154.535, -23.328167
  156.179, -23.098585
  157.841, -22.814819
  159.520, -22.523409
  161.218, -22.269461
  162.933, -22.092730
  164.667, -22.003542
  166.419, -21.981602
  168.190, -22.002335
  169.979, -22.056515
  171.788, -22.142721
  173.616, -22.241327
  175.463, -22.336098
  177.330, -22.410721
  179.217, -22.452805
  181.124, -22.451729
  183.052, -22.418955
  184.999, -22.382534
  186.968, -22.411486
  188.957, -22.567362
  190.968, -22.870605
  193.000, -23.270407
  195.054, -23.693388
  197.129, -24.072166
  199.227, -24.365074
  201.347, -24.567139
  203.489, -24.696093
  205.654, -24.757439
  207.843, -24.745737
  210.054, -24.641129
  212.289, -24.414774
  214.548, -24.067940
  216.831, -23.647545
  219.138, -23.228817
  221.470, -22.872534
  223.827, -22.599794
  226.208, -22.409039
  228.615, -22.283831
  231.048, -22.220026
  233.506, -22.234777
  235.991, -22.379442
  238.502, -22.673864
  241.040, -23.066267
  243.605, -23.417091
  246.197, -23.547819
  248.816, -23.417017
  251.464, -23.112171
  254.140, -22.787245
  256.844, -22.506973
  259.577, -22.285166
  262.339, -22.111786
  265.130, -21.973946
  267.952, -21.872820
  270.803, -21.808220
  273.684, -21.780460
  276.596, -21.790871
  279.540, -21.842573
  282.514, -21.950014
  285.520, -22.116390
  288.558, -22.313335
  291.629, -22.455235
  294.732, -22.475031
  297.868, -22.380756
  301.037, -22.248383
  304.241, -22.137049
  307.478, -22.063881
  310.750, -22.026508
  314.056, -22.026270
  317.398, -22.080765
  320.775, -22.192106
  324.189, -22.329821
  327.638, -22.424299
  331.124, -22.440542
  334.648, -22.400438
  338.209, -22.364996
  341.807, -22.369513
  345.444, -22.411165
  349.120, -22.453707
  352.835, -22.460922
  356.589, -22.427685
  360.384, -22.381517
  364.218, -22.355413
  368.094, -22.357521
  372.011, -22.361259
  375.969, -22.310352
  379.970, -22.188082
  384.013, -22.063423
  388.099, -22.059118
  392.228, -22.194662
  396.402, -22.340267
  400.620, -22.329958
  404.883, -22.164570
  409.191, -21.983351
  413.545, -21.869991
  417.945, -21.826569
  422.393, -21.822227
  426.887, -21.843206
  431.429, -21.870575
  436.020, -21.886995
  440.660, -21.882046
  445.348, -21.843056
  450.087, -21.769211
  454.876, -21.699293
  459.717, -21.672163
  464.608, -21.694149
  469.552, -21.736506
  474.548, -21.783682
  479.598, -21.833689
  484.701, -21.887768
  489.858, -21.948206
  495.071, -22.018064
  500.339, -22.088270
  505.663, -22.138805
  511.043, -22.168343
  516.481, -22.201567
  521.977, -22.249086
  527.531, -22.252478
  533.144, -22.190781
  538.817, -22.149611
  544.550, -22.195438
  550.345, -22.267694
  556.201, -22.279102
  562.119, -22.261425
  568.100, -22.276836
  574.145, -22.310732
  580.255, -22.342180
  586.429, -22.487364
  592.669, -22.754684
  598.975, -23.005705
  605.349, -23.135683
  611.790, -23.263077
  618.300, -23.536856
  624.879, -23.920044
  631.528, -24.329796
  638.248, -24.692453
  645.039, -24.840809
  651.903, -24.782387
  658.839, -24.635994
  665.850, -24.521832
  672.935, -24.376581
  680.095, -24.112511
  687.332, -23.757290
  694.645, -23.370644
  702.037, -23.093945
  709.507, -22.928665
  717.057, -22.788450
  724.686, -22.604467
  732.398, -22.403692
  740.191, -22.243147
  748.067, -22.137144
  756.027, -22.079704
  764.071, -22.026402
  772.201, -21.942125
  780.418, -21.879147
  788.722, -21.925301
  797.115, -21.969358
  805.597, -21.957230
  814.169, -21.869957
  822.832, -21.822205
  831.587, -21.812164
  840.436, -21.772978
  849.379, -21.666243
  858.417, -21.540789
  867.551, -21.526014
  876.782, -21.522377
  886.111, -21.485085
  895.540, -21.419483
  905.069, -21.391462
  914.700, -21.316244
  924.433, -21.188702
  934.269, -21.118376
  944.210, -21.133045
  954.257, -21.171150
  964.411, -21.164675
  974.673, -21.080435
  985.044, -21.017857
  995.526, -20.961756
 1006.119, -20.927229
 1016.824, -20.855499
 1027.644, -20.819424
 1038.579, -20.795311
 1049.630, -20.747850
 1060.799, -20.665985
 1072.086, -20.614679
 1083.494, -20.624878
 1095.023, -20.633953
 1106.674, -20.603422
 1118.450, -20.539549
 1130.351, -20.495876
 1142.379, -20.492504
 1154.534, -20.472769
 1166.819, -20.422213
 1179.235, -20.328205
 1191.783, -20.264097
 1204.464, -20.222437
 1217.280, -20.155651
 1230.233, -20.093288
 1243.323, -20.072941
 1256.553, -20.093494
 1269.923, -20.092157
 1283.436, -20.065937
 1297.093, -20.016550
 1310.895, -19.953274
 1324.843, -19.868443
 1338.940, -19.803972
 1353.188, -19.771494
 1367.586, -19.729073
 1382.138, -19.705542
 1396.845, -19.667740
 1411.708, -19.628759
 1426.730, -19.594334
 1441.911, -19.545462
 1457.254, -19.513033
 1472.760, -19.466751
 1488.431, -19.430578
 1504.269, -19.373917
 1520.275, -19.312622
 1536.452, -19.256002
 1552.801, -19.226362
 1569.323, -19.171215
 1586.022, -19.121075
 1602.898, -19.037117
 1619.954, -18.971512
 1637.191, -18.901854
 1654.612, -18.862141
 1672.218, -18.781408
 1690.011, -18.706591
 1707.994, -18.634142
 1726.168, -18.566460
 1744.536, -18.496580
 1763.099, -18.415668
 1781.859, -18.362444
 1800.819, -18.294540
 1819.981, -18.214092
 1839.347, -18.106743
 1858.918, -17.992989
 1878.698, -17.911421
 1898.689, -17.821665
 1918.892, -17.729801
 1939.310, -17.603050
 1959.946, -17.491091
 1980.801, -17.385305
 2001.878, -17.293615
 2023.179, -17.163851
 2044.707, -17.039501
 2066.464, -16.905796
 2088.452, -16.789669
 2110.674, -16.654581
 2133.133, -16.522867
 2155.831, -16.380516
 2178.771, -16.206606
 2201.954, -16.048048
 2225.384, -15.905477
 2249.063, -15.773561
 2272.995, -15.613865
 2297.181, -15.441069
 2321.624, -15.261490
 2346.328, -15.099625
 2371.294, -14.942188
 2396.526, -14.778797
 2422.027, -14.611415
 2447.798, -14.438817
 2473.844, -14.281960
 2500.168, -14.135071
 2526.771, -14.012134
 2553.657, -13.897431
 2580.830, -13.776525
 2608.291, -13.637512
 2636.045, -13.496450
 2664.094, -13.369571
 2692.442, -13.247671
 2721.091, -13.133791
 2750.045, -13.022101
 2779.307, -12.944455
 2808.881, -12.895727
 2838.769, -12.890599
 2868.975, -12.919423
 2899.503, -12.980618
 2930.355, -13.057369
 2961.536, -13.143843
 2993.049, -13.251102
 3024.896, -13.380218
 3057.083, -13.518123
 3089.612, -13.649426
 3122.488, -13.779251
 3155.713, -13.914319
 3189.292, -14.048619
 3223.228, -14.195354
 3257.525, -14.328229
 3292.187, -14.469759
 3327.218, -14.603796
 3362.621, -14.759646
 3398.402, -14.905517
 3434.563, -15.055656
 3471.108, -15.204411
 3508.043, -15.355133
 3545.371, -15.486215
 3583.096, -15.596869
 3621.222, -15.691018
 3659.754, -15.772939
 3698.696, -15.837226
 3738.052, -15.882860
 3777.827, -15.931612
 3818.026, -15.978544
 3858.652, -16.031988
 3899.710, -16.085678
 3941.206, -16.143293
 3983.142, -16.213894
 4025.525, -16.291424
 4068.360, -16.378176
 4111.649, -16.455711
 4155.400, -16.533855
 4199.616, -16.616577
 4244.302, -16.694544
 4289.464, -16.754856
 4335.106, -16.793625
 4381.235, -16.801567
 4427.854, -16.766047
 4474.969, -16.693279
 4522.585, -16.602476
 4570.708, -16.507284
 4619.343, -16.398829
 4668.496, -16.271793
 4718.171, -16.114027
 4768.376, -15.943268
 4819.114, -15.773630
 4870.393, -15.612255
 4922.216, -15.470422
 4974.592, -15.351906
 5027.524, -15.295156
 5081.021, -15.275236
 5135.085, -15.338239
 5189.726, -15.454971
 5244.948, -15.652557
 5300.757, -15.892246
 5357.161, -16.176218
 5414.164, -16.471956
 5471.774, -16.778599
 5529.997, -17.074261
 5588.839, -17.367958
 5648.308, -17.636736
 5708.409, -17.900665
 5769.150, -18.151709
 5830.538, -18.386238
 5892.578, -18.612328
 5955.279, -18.825104
 6018.646, -19.027172
 6082.688, -19.230869
 6147.412, -19.422380
 6212.824, -19.596735
 6278.932, -19.740416
 6345.744, -19.860168
 6413.267, -19.952024
 6481.507, -20.019264
 6550.475, -20.060650
 6620.176, -20.080013
 6690.619, -20.073835
 6761.811, -20.055977
 6833.760, -20.020445
 6906.476, -19.960058
 6979.965, -19.877668
 7054.236, -19.764877
 7129.297, -19.622271
 7205.157, -19.461411
 7281.825, -19.264584
 7359.308, -19.035471
 7437.615, -18.738701
 7516.756, -18.360992
 7596.739, -17.877569
 7677.572, -17.291912
 7759.267, -16.619328
 7841.830, -15.883776
 7925.271, -15.163991
 8009.601, -14.592984
 8094.828, -14.329403
 8180.962, -14.518458
 8268.013, -15.176260
 8355.989, -16.287405
 8444.902, -17.674725
 8534.761, -19.214422
 8625.576, -20.741396
 8717.357, -22.250551
 8810.115, -23.729715
 8903.860, -25.142517
 8998.603, -26.559019
 9094.354, -28.034918
 9191.123, -29.631134
 9288.922, -31.342663
 9387.762, -32.702721
 9487.653, -32.627254
 9588.607, -31.395809
 9690.636, -30.258484
 9793.750, -29.723892
 9897.962, -29.668344
10003.282, -29.835663
10109.723, -29.967297
10217.297, -30.037292
10326.015, -30.073807
10435.890, -30.168840
10546.934, -30.337580
10659.160, -30.601343
10772.580, -30.903051
10887.206, -31.205725
11003.053, -31.508848
11120.132, -31.832432
11238.457, -32.144070
11358.041, -32.406494
11478.897, -32.637791
11601.040, -32.850704
11724.481, -33.059933
11849.237, -33.227806
11975.320, -33.361565
12102.745, -33.485245
12231.525, -33.588661
12361.677, -33.670292
12493.212, -33.694019
12626.147, -33.654922
12760.497, -33.567036
12896.277, -33.396889
13033.501, -33.180721
13172.186, -32.877514
13312.346, -32.502609
13453.997, -32.078224
13597.155, -31.618265
13741.838, -31.168144
13888.059, -30.641932
14035.836, -29.993561
14185.187, -29.117609
14336.125, -27.965813
14488.670, -26.529638
14642.839, -24.833273
14798.647, -22.830570
14956.113, -20.769583
15115.256, -19.169750
15276.091, -18.617838
15438.638, -19.354540
15602.915, -21.432358
15768.939, -24.189991
15936.730, -26.660347
16106.307, -28.287344
16277.688, -29.057570
16450.893, -29.220942
16625.939, -29.000019
16802.850, -28.443331
16981.643, -27.729870
17162.336, -26.939159
17344.955, -26.150932
17529.516, -25.582069
17716.039, -25.327875
17904.549, -25.559690
18095.064, -26.060465
18287.607, -26.994865
18482.199, -28.099493
18678.859, -29.459398
18877.615, -30.501976
19078.484, -31.601595
19281.490, -32.493786
19486.656, -33.200352
19694.008, -33.609985
19903.563, -34.122738
20115.350, -38.406830
20329.389, -39.572182
20545.705, -40.876381
20764.324, -41.977367
20985.270, -41.565247
21208.564, -39.632729
21434.236, -37.374477
21662.311, -35.543442
21892.811, -34.223404
22125.764, -33.371048
22361.195, -33.461449
22599.131, -34.353924
22839.600, -36.380646
23082.627, -38.951359
23328.240, -42.695168
23576.467, -46.774666
23827.334, -49.977715
