Frequency(Hz),   Magnitude(dB)
   11.804, -16.679981
   11.929, -16.731779
   12.056, -16.796436
   12.184, -16.861601
   12.314, -16.925512
   12.445, -16.988314
   12.578, -17.050161
   12.711, -17.111204
   12.847, -17.171574
   12.983, -17.231293
   13.122, -17.290169
   13.261, -17.348019
   13.402, -17.404762
   13.545, -17.460548
   13.689, -17.515522
   13.835, -17.569817
   13.982, -17.623535
   14.131, -17.676773
   14.281, -17.729389
   14.433, -17.781197
   14.587, -17.831984
   14.742, -17.881748
   14.899, -17.930666
   15.057, -17.978937
   15.217, -18.026625
   15.379, -18.073668
   15.543, -18.119949
   15.708, -18.165396
   15.875, -18.210003
   16.044, -18.253742
   16.215, -18.296658
   16.388, -18.338844
   16.562, -18.380455
   16.738, -18.421482
   16.916, -18.461746
   17.096, -18.501064
   17.278, -18.539366
   17.462, -18.576738
   17.648, -18.613228
   17.836, -18.648760
   18.025, -18.683189
   18.217, -18.716394
   18.411, -18.748465
   18.607, -18.779482
   18.805, -18.809563
   19.005, -18.838800
   19.207, -18.867224
   19.412, -18.894522
   19.618, -18.920341
   19.827, -18.944626
   20.038, -18.967598
   20.251, -18.989408
   20.467, -19.009981
   20.684, -19.029228
   20.905, -19.047108
   21.127, -19.063715
   21.352, -19.079142
   21.579, -19.093285
   21.809, -19.105909
   22.041, -19.116793
   22.275, -19.125847
   22.512, -19.132994
   22.752, -19.138268
   22.994, -19.141777
   23.239, -19.143536
   23.486, -19.142742
   23.736, -19.138159
   23.988, -19.128771
   24.244, -19.114353
   24.501, -19.095039
   24.762, -19.070890
   25.026, -19.041916
   25.292, -19.008171
   25.561, -18.969883
   25.833, -18.927328
   26.108, -18.880707
   26.386, -18.829931
   26.667, -18.774906
   26.950, -18.715891
   27.237, -18.653473
   27.527, -18.588123
   27.820, -18.519960
   28.116, -18.449059
   28.415, -18.375620
   28.717, -18.300039
   29.023, -18.222755
   29.332, -18.144224
   29.644, -18.064888
   29.959, -17.985233
   30.278, -17.905701
   30.600, -17.826580
   30.926, -17.748112
   31.255, -17.670877
   31.587, -17.595726
   31.924, -17.523422
   32.263, -17.454521
   32.607, -17.389574
   32.953, -17.329205
   33.304, -17.274139
   33.658, -17.225138
   34.017, -17.183123
   34.379, -17.149181
   34.744, -17.125072
   35.114, -17.118355
   35.488, -17.130255
   35.865, -17.157667
   36.247, -17.192019
   36.633, -17.231459
   37.022, -17.275644
   37.416, -17.324049
   37.815, -17.376186
   38.217, -17.431866
   38.624, -17.491081
   39.035, -17.553791
   39.450, -17.619627
   39.870, -17.688030
   40.294, -17.758461
   40.723, -17.830421
   41.156, -17.903484
   41.594, -17.977150
   42.036, -18.050768
   42.484, -18.123571
   42.936, -18.194794
   43.393, -18.263828
   43.854, -18.330112
   44.321, -18.392929
   44.793, -18.451406
   45.269, -18.504599
   45.751, -18.551693
   46.238, -18.592333
   46.730, -18.629747
   47.227, -18.666086
   47.730, -18.701096
   48.237, -18.731190
   48.751, -18.754810
   49.269, -18.772278
   49.794, -18.784405
   50.323, -18.792103
   50.859, -18.796135
   51.400, -18.797157
   51.947, -18.795855
   52.500, -18.792967
   53.058, -18.789261
   53.623, -18.785721
   54.194, -18.783834
   54.770, -18.785252
   55.353, -18.791147
   55.942, -18.802126
   56.537, -18.818882
   57.139, -18.842813
   57.747, -18.875881
   58.361, -18.922960
   58.982, -18.988737
   59.610, -19.074732
   60.244, -19.178255
   60.885, -19.296070
   61.533, -19.425970
   62.188, -19.565832
   62.850, -19.713884
   63.518, -19.868347
   64.194, -20.027304
   64.877, -20.188738
   65.568, -20.350449
   66.265, -20.509939
   66.970, -20.664505
   67.683, -20.811321
   68.403, -20.947618
   69.131, -21.070526
   69.867, -21.176601
   70.610, -21.265211
   71.361, -21.339550
   72.121, -21.404606
   72.888, -21.462881
   73.664, -21.514542
   74.448, -21.559605
   75.240, -21.598087
   76.040, -21.629869
   76.849, -21.654522
   77.667, -21.671587
   78.494, -21.680716
   79.329, -21.681873
   80.173, -21.675104
   81.026, -21.660400
   81.888, -21.638985
   82.759, -21.611349
   83.640, -21.577387
   84.530, -21.536034
   85.430, -21.487200
   86.339, -21.430622
   87.257, -21.365364
   88.186, -21.290497
   89.124, -21.205578
   90.072, -21.110476
   91.031, -21.005117
   91.999, -20.889977
   92.978, -20.767416
   93.968, -20.638266
   94.968, -20.493649
   95.978, -20.323561
   96.999, -20.123608
   98.032, -19.900261
   99.075, -19.661516
  100.129, -19.416073
  101.194, -19.173105
  102.271, -18.942322
  103.359, -18.734489
  104.459, -18.571705
  105.571, -18.526697
  106.694, -18.625477
  107.829, -18.861574
  108.977, -19.171721
  110.136, -19.532063
  111.308, -19.921299
  112.492, -20.316298
  113.689, -20.692093
  114.899, -21.021606
  116.122, -21.273468
  117.357, -21.421202
  118.606, -21.477886
  119.868, -21.479454
  121.144, -21.462315
  122.433, -21.435604
  123.735, -21.406017
  125.052, -21.380260
  126.383, -21.365318
  127.727, -21.367611
  129.087, -21.387960
  130.460, -21.422028
  131.848, -21.463873
  133.251, -21.511015
  134.669, -21.562223
  136.102, -21.615585
  137.550, -21.669537
  139.014, -21.723946
  140.493, -21.778738
  141.988, -21.833851
  143.499, -21.889578
  145.026, -21.946569
  146.569, -22.005352
  148.129, -22.065798
  149.705, -22.127563
  151.298, -22.190056
  152.908, -22.251938
  154.535, -22.311703
  156.179, -22.368090
  157.841, -22.422907
  159.520, -22.479664
  161.218, -22.540953
  162.933, -22.596937
  164.667, -22.621284
  166.419, -22.597380
  168.190, -22.538519
  169.979, -22.481958
  171.788, -22.458063
  173.616, -22.478058
  175.463, -22.545372
  177.330, -22.660259
  179.217, -22.810528
  181.124, -22.970890
  183.052, -23.113029
  184.999, -23.212040
  186.968, -23.229538
  188.957, -23.136877
  190.968, -22.939299
  193.000, -22.681093
  195.054, -22.416103
  197.129, -22.196337
  199.227, -22.066338
  201.347, -22.038319
  203.489, -22.091274
  205.654, -22.179419
  207.843, -22.257725
  210.054, -22.287956
  212.289, -22.247940
  214.548, -22.140907
  216.831, -21.993177
  219.138, -21.847219
  221.470, -21.760368
  223.827, -21.772568
  226.208, -21.882334
  228.615, -22.042408
  231.048, -22.196165
  233.506, -22.312159
  235.991, -22.391497
  238.502, -22.448616
  241.040, -22.491096
  243.605, -22.514591
  246.197, -22.513273
  248.816, -22.484600
  251.464, -22.434719
  254.140, -22.381075
  256.844, -22.347309
  259.577, -22.349596
  262.339, -22.386644
  265.130, -22.438089
  267.952, -22.469400
  270.803, -22.450815
  273.684, -22.379253
  276.596, -22.282013
  279.540, -22.200993
  282.514, -22.158163
  285.520, -22.154823
  288.558, -22.180298
  291.629, -22.229013
  294.732, -22.306574
  297.868, -22.411551
  301.037, -22.522278
  304.241, -22.563875
  307.478, -22.482925
  310.750, -22.301252
  314.056, -22.126024
  317.398, -22.044334
  320.775, -22.067823
  324.189, -22.135805
  327.638, -22.159492
  331.124, -22.097467
  334.648, -21.977617
  338.209, -21.878098
  341.807, -21.839832
  345.444, -21.856289
  349.120, -21.891869
  352.835, -21.930975
  356.589, -21.971447
  360.384, -22.003929
  364.218, -21.992083
  368.094, -21.923647
  372.011, -21.841078
  375.969, -21.821060
  379.970, -21.878176
  384.013, -21.974865
  388.099, -22.066948
  392.228, -22.141333
  396.402, -22.179068
  400.620, -22.147730
  404.883, -22.057787
  409.191, -21.970362
  413.545, -21.928270
  417.945, -21.925741
  422.393, -21.932615
  426.887, -21.941521
  431.429, -21.947708
  436.020, -21.945313
  440.660, -21.935528
  445.348, -21.928915
  450.087, -21.932652
  454.876, -21.942251
  459.717, -21.947632
  464.608, -21.939892
  469.552, -21.901911
  474.548, -21.834217
  479.598, -21.759169
  484.701, -21.700953
  489.858, -21.660578
  495.071, -21.627802
  500.339, -21.614733
  505.663, -21.663408
  511.043, -21.762049
  516.481, -21.841726
  521.977, -21.860340
  527.531, -21.896500
  533.144, -22.004910
  538.817, -22.113504
  544.550, -22.145456
  550.345, -22.132034
  556.201, -22.151825
  562.119, -22.220055
  568.100, -22.323328
  574.145, -22.463453
  580.255, -22.642454
  586.429, -22.858152
  592.669, -23.094316
  598.975, -23.328066
  605.349, -23.526041
  611.790, -23.653835
  618.300, -23.786861
  624.879, -24.016041
  631.528, -24.322443
  638.248, -24.572119
  645.039, -24.664951
  651.903, -24.614759
  658.839, -24.418518
  665.850, -24.145664
  672.935, -23.866537
  680.095, -23.595142
  687.332, -23.332085
  694.645, -23.112322
  702.037, -22.946096
  709.507, -22.799013
  717.057, -22.641441
  724.686, -22.490980
  732.398, -22.354807
  740.191, -22.231970
  748.067, -22.115038
  756.027, -22.024992
  764.071, -22.031904
  772.201, -22.015081
  780.418, -21.944588
  788.722, -21.836142
  797.115, -21.757776
  805.597, -21.713022
  814.169, -21.665327
  822.832, -21.624088
  831.587, -21.581518
  840.436, -21.545050
  849.379, -21.533405
  858.417, -21.477131
  867.551, -21.403143
  876.782, -21.333454
  886.111, -21.274561
  895.540, -21.207129
  905.069, -21.190218
  914.700, -21.201260
  924.433, -21.204962
  934.269, -21.176350
  944.210, -21.141457
  954.257, -21.096401
  964.411, -21.068697
  974.673, -21.048153
  985.044, -20.996647
  995.526, -20.894712
 1006.119, -20.804625
 1016.824, -20.782705
 1027.644, -20.777967
 1038.579, -20.769218
 1049.630, -20.741823
 1060.799, -20.734716
 1072.086, -20.724295
 1083.494, -20.668776
 1095.023, -20.586308
 1106.674, -20.521101
 1118.450, -20.484407
 1130.351, -20.439152
 1142.379, -20.383137
 1154.534, -20.335850
 1166.819, -20.298979
 1179.235, -20.260017
 1191.783, -20.220800
 1204.464, -20.195848
 1217.280, -20.167801
 1230.233, -20.153828
 1243.323, -20.105537
 1256.553, -20.078779
 1269.923, -20.025467
 1283.436, -19.984426
 1297.093, -19.941448
 1310.895, -19.925140
 1324.843, -19.929306
 1338.940, -19.901009
 1353.188, -19.877314
 1367.586, -19.841034
 1382.138, -19.816034
 1396.845, -19.758331
 1411.708, -19.676443
 1426.730, -19.596384
 1441.911, -19.552433
 1457.254, -19.520796
 1472.760, -19.481190
 1488.431, -19.407633
 1504.269, -19.373936
 1520.275, -19.332134
 1536.452, -19.301455
 1552.801, -19.238789
 1569.323, -19.183851
 1586.022, -19.108629
 1602.898, -19.031815
 1619.954, -18.962328
 1637.191, -18.893061
 1654.612, -18.812807
 1672.218, -18.750566
 1690.011, -18.686859
 1707.994, -18.628801
 1726.168, -18.548826
 1744.536, -18.492002
 1763.099, -18.433903
 1781.859, -18.348835
 1800.819, -18.251453
 1819.981, -18.141022
 1839.347, -18.064304
 1858.918, -17.991625
 1878.698, -17.912546
 1898.689, -17.815666
 1918.892, -17.722486
 1939.310, -17.619148
 1959.946, -17.520082
 1980.801, -17.416586
 2001.878, -17.315264
 2023.179, -17.206041
 2044.707, -17.084763
 2066.464, -16.944935
 2088.452, -16.790632
 2110.674, -16.635603
 2133.133, -16.491882
 2155.831, -16.341825
 2178.771, -16.198071
 2201.954, -16.067379
 2225.384, -15.932885
 2249.063, -15.789783
 2272.995, -15.599865
 2297.181, -15.416836
 2321.624, -15.242741
 2346.328, -15.109915
 2371.294, -14.969234
 2396.526, -14.811136
 2422.027, -14.635371
 2447.798, -14.469010
 2473.844, -14.328070
 2500.168, -14.192139
 2526.771, -14.032933
 2553.657, -13.868459
 2580.830, -13.723625
 2608.291, -13.580177
 2636.045, -13.434214
 2664.094, -13.284522
 2692.442, -13.146687
 2721.091, -13.024805
 2750.045, -12.940343
 2779.307, -12.893853
 2808.881, -12.872429
 2838.769, -12.873643
 2868.975, -12.904727
 2899.503, -12.968411
 2930.355, -13.063978
 2961.536, -13.174999
 2993.049, -13.287600
 3024.896, -13.398461
 3057.083, -13.525352
 3089.612, -13.651781
 3122.488, -13.776943
 3155.713, -13.915092
 3189.292, -14.066920
 3223.228, -14.225366
 3257.525, -14.366424
 3292.187, -14.505522
 3327.218, -14.636068
 3362.621, -14.772349
 3398.402, -14.920480
 3434.563, -15.070019
 3471.108, -15.211468
 3508.043, -15.340017
 3545.371, -15.470479
 3583.096, -15.585912
 3621.222, -15.675263
 3659.754, -15.744319
 3698.696, -15.801826
 3738.052, -15.855890
 3777.827, -15.915953
 3818.026, -15.965775
 3858.652, -16.003302
 3899.710, -16.033541
 3941.206, -16.080360
 3983.142, -16.142015
 4025.525, -16.201139
 4068.360, -16.272556
 4111.649, -16.354927
 4155.400, -16.462120
 4199.616, -16.559404
 4244.302, -16.643751
 4289.464, -16.692944
 4335.106, -16.729204
 4381.235, -16.736946
 4427.854, -16.714491
 4474.969, -16.664545
 4522.585, -16.592415
 4570.708, -16.500799
 4619.343, -16.393660
 4668.496, -16.269085
 4718.171, -16.120274
 4768.376, -15.944117
 4819.114, -15.768852
 4870.393, -15.601727
 4922.216, -15.456183
 4974.592, -15.349150
 5027.524, -15.284160
 5081.021, -15.278851
 5135.085, -15.336141
 5189.726, -15.462334
 5244.948, -15.650831
 5300.757, -15.889833
 5357.161, -16.170963
 5414.164, -16.457432
 5471.774, -16.755224
 5529.997, -17.054291
 5588.839, -17.351202
 5648.308, -17.638758
 5708.409, -17.918270
 5769.150, -18.176542
 5830.538, -18.405264
 5892.578, -18.623676
 5955.279, -18.839352
 6018.646, -19.050642
 6082.688, -19.245117
 6147.412, -19.430029
 6212.824, -19.600416
 6278.932, -19.751125
 6345.744, -19.868752
 6413.267, -19.960226
 6481.507, -20.029726
 6550.475, -20.077253
 6620.176, -20.101404
 6690.619, -20.095245
 6761.811, -20.073963
 6833.760, -20.031317
 6906.476, -19.978550
 6979.965, -19.904991
 7054.236, -19.808861
 7129.297, -19.683516
 7205.157, -19.535578
 7281.825, -19.345789
 7359.308, -19.114845
 7437.615, -18.829395
 7516.756, -18.461576
 7596.739, -17.992201
 7677.572, -17.414698
 7759.267, -16.757467
 7841.830, -16.043058
 7925.271, -15.316274
 8009.601, -14.716056
 8094.828, -14.404562
 8180.962, -14.533622
 8268.013, -15.122511
 8355.989, -16.163561
 8444.902, -17.510876
 8534.761, -19.037725
 8625.576, -20.562258
 8717.357, -22.068295
 8810.115, -23.533411
 8903.860, -24.942684
 8998.603, -26.347218
 9094.354, -27.834093
 9191.123, -29.461304
 9288.922, -31.260990
 9387.762, -32.736691
 9487.653, -32.788616
 9588.607, -31.477901
 9690.636, -30.240984
 9793.750, -29.621029
 9897.962, -29.534830
10003.282, -29.698906
10109.723, -29.857109
10217.297, -29.934305
10326.015, -29.999401
10435.890, -30.110256
10546.934, -30.284613
10659.160, -30.529684
10772.580, -30.832708
10887.206, -31.165098
11003.053, -31.467697
11120.132, -31.772665
11238.457, -32.048389
11358.041, -32.311756
11478.897, -32.575687
11601.040, -32.823078
11724.481, -33.038242
11849.237, -33.201763
11975.320, -33.366085
12102.745, -33.519081
12231.525, -33.612247
12361.677, -33.664825
12493.212, -33.686092
12626.147, -33.657280
12760.497, -33.547825
12896.277, -33.370369
13033.501, -33.155483
13172.186, -32.852661
13312.346, -32.478378
13453.997, -32.080692
13597.155, -31.693186
13741.838, -31.262024
13888.059, -30.741829
14035.836, -30.088985
14185.187, -29.228035
14336.125, -28.094187
14488.670, -26.681606
14642.839, -25.006851
14798.647, -23.011520
14956.113, -20.950275
15115.256, -19.284096
15276.091, -18.637560
15438.638, -19.248730
15602.915, -21.232754
15768.939, -23.955959
15936.730, -26.481876
16106.307, -28.128748
16277.688, -28.934870
16450.893, -29.148834
16625.939, -28.979887
16802.850, -28.513454
16981.643, -27.791401
17162.336, -26.997896
17344.955, -26.195621
17529.516, -25.606731
17716.039, -25.293762
17904.549, -25.463436
18095.064, -26.045979
18287.607, -26.975086
18482.199, -28.102011
18678.859, -29.309462
18877.615, -30.498848
19078.484, -31.448904
19281.490, -32.344765
19486.656, -33.120579
19694.008, -33.731533
19903.563, -34.289543
20115.350, -38.479507
20329.389, -39.615593
20545.705, -40.878658
20764.324, -42.113846
20985.270, -41.971016
21208.564, -39.854744
21434.236, -37.065613
21662.311, -35.063141
21892.811, -33.699532
22125.764, -33.125496
22361.195, -33.411484
22599.131, -34.494457
22839.600, -36.579102
23082.627, -39.165668
23328.240, -43.140488
23576.467, -47.153797
23827.334, -50.771370
