Frequency(Hz),   Magnitude(dB)
   11.804, -17.147854
   11.929, -17.349808
   12.056, -17.685213
   12.184, -18.038359
   12.314, -18.391605
   12.445, -18.745010
   12.578, -19.098673
   12.711, -19.452646
   12.847, -19.806986
   12.983, -20.161619
   13.122, -20.516268
   13.261, -20.870625
   13.402, -21.224543
   13.545, -21.578028
   13.689, -21.931129
   13.835, -22.283857
   13.982, -22.636181
   14.131, -22.988045
   14.281, -23.339178
   14.433, -23.689257
   14.587, -24.037905
   14.742, -24.384968
   14.899, -24.730431
   15.057, -25.074322
   15.217, -25.416523
   15.379, -25.756763
   15.543, -26.094736
   15.708, -26.430147
   15.875, -26.762764
   16.044, -27.092319
   16.215, -27.418629
   16.388, -27.741520
   16.562, -28.060879
   16.738, -28.376411
   16.916, -28.687662
   17.096, -28.994133
   17.278, -29.295439
   17.462, -29.591324
   17.648, -29.881510
   17.836, -30.165560
   18.025, -30.442928
   18.217, -30.713131
   18.411, -30.975838
   18.607, -31.230711
   18.805, -31.477417
   19.005, -31.715586
   19.207, -31.944778
   19.412, -32.164192
   19.618, -32.372936
   19.827, -32.570419
   20.038, -32.756294
   20.251, -32.930145
   20.467, -33.091282
   20.684, -33.238968
   20.905, -33.372509
   21.127, -33.491322
   21.352, -33.594772
   21.579, -33.682034
   21.809, -33.752090
   22.041, -33.803925
   22.275, -33.836609
   22.512, -33.849220
   22.752, -33.840874
   22.994, -33.810745
   23.239, -33.758007
   23.486, -33.681995
   23.736, -33.582531
   23.988, -33.459988
   24.244, -33.314831
   24.501, -33.147526
   24.762, -32.958420
   25.026, -32.747883
   25.292, -32.516376
   25.561, -32.264553
   25.833, -31.993183
   26.108, -31.702991
   26.386, -31.394505
   26.667, -31.068254
   26.950, -30.725216
   27.237, -30.366711
   27.527, -29.994068
   27.820, -29.608284
   28.116, -29.210396
   28.415, -28.801626
   28.717, -28.383486
   29.023, -27.957596
   29.332, -27.525690
   29.644, -27.089546
   29.959, -26.651091
   30.278, -26.212318
   30.600, -25.775122
   30.926, -25.341476
   31.255, -24.913824
   31.587, -24.494921
   31.924, -24.087610
   32.263, -23.694593
   32.607, -23.318739
   32.953, -22.963083
   33.304, -22.630890
   33.658, -22.325607
   34.017, -22.050991
   34.379, -21.811085
   34.744, -21.610022
   35.114, -21.449648
   35.488, -21.320004
   35.865, -21.207617
   36.247, -21.101444
   36.633, -21.000275
   37.022, -20.904232
   37.416, -20.813238
   37.815, -20.727245
   38.217, -20.646606
   38.624, -20.571821
   39.035, -20.503420
   39.450, -20.441597
   39.870, -20.386461
   40.294, -20.338102
   40.723, -20.296738
   41.156, -20.262674
   41.594, -20.236185
   42.036, -20.217421
   42.484, -20.206491
   42.936, -20.203527
   43.393, -20.208885
   43.854, -20.222984
   44.321, -20.246157
   44.793, -20.278646
   45.269, -20.320671
   45.751, -20.372629
   46.238, -20.434135
   46.730, -20.495420
   47.227, -20.553207
   47.730, -20.612669
   48.237, -20.687901
   48.751, -20.783381
   49.269, -20.897760
   49.794, -21.029421
   50.323, -21.176632
   50.859, -21.337353
   51.400, -21.509197
   51.947, -21.689598
   52.500, -21.875805
   53.058, -22.064875
   53.623, -22.253805
   54.194, -22.439869
   54.770, -22.620186
   55.353, -22.791153
   55.942, -22.948235
   56.537, -23.086746
   57.139, -23.202297
   57.747, -23.289352
   58.361, -23.330376
   58.982, -23.311619
   59.610, -23.233887
   60.244, -23.113735
   60.885, -22.962929
   61.533, -22.785259
   62.188, -22.584221
   62.850, -22.364002
   63.518, -22.129223
   64.194, -21.884804
   64.877, -21.636005
   65.568, -21.388380
   66.265, -21.147690
   66.970, -20.919985
   67.683, -20.711700
   68.403, -20.529928
   69.131, -20.382488
   69.867, -20.279470
   70.610, -20.224237
   71.361, -20.208817
   72.121, -20.219265
   72.888, -20.245878
   73.664, -20.285637
   74.448, -20.336012
   75.240, -20.394283
   76.040, -20.457365
   76.849, -20.521690
   77.667, -20.583406
   78.494, -20.638540
   79.329, -20.683195
   80.173, -20.713276
   81.026, -20.725199
   81.888, -20.724659
   82.759, -20.713121
   83.640, -20.689144
   84.530, -20.645655
   85.430, -20.584385
   86.339, -20.509611
   87.257, -20.425404
   88.186, -20.336164
   89.124, -20.247116
   90.072, -20.164087
   91.031, -20.093395
   91.999, -20.042370
   92.978, -20.024084
   93.968, -20.066872
   94.968, -20.187672
   95.978, -20.388029
   96.999, -20.647881
   98.032, -20.952154
   99.075, -21.285604
  100.129, -21.631983
  101.194, -21.973751
  102.271, -22.292036
  103.359, -22.566181
  104.459, -22.768797
  105.571, -22.853174
  106.694, -22.814663
  107.829, -22.680944
  108.977, -22.502066
  110.136, -22.294380
  111.308, -22.071186
  112.492, -21.846411
  113.689, -21.634848
  114.899, -21.452229
  116.122, -21.315544
  117.357, -21.233500
  118.606, -21.192976
  119.868, -21.172256
  121.144, -21.154850
  122.433, -21.139688
  123.735, -21.126944
  125.052, -21.116407
  126.383, -21.107645
  127.727, -21.099247
  129.087, -21.088135
  130.460, -21.075109
  131.848, -21.063225
  133.251, -21.056637
  134.669, -21.054707
  136.102, -21.055550
  137.550, -21.057611
  139.014, -21.064184
  140.493, -21.113894
  141.988, -21.245367
  143.499, -21.478554
  145.026, -21.786829
  146.569, -22.135347
  148.129, -22.487608
  149.705, -22.803242
  151.298, -23.029356
  152.908, -23.105314
  154.535, -23.011185
  156.179, -22.779209
  157.841, -22.476332
  159.520, -22.163454
  161.218, -21.901476
  162.933, -21.741787
  164.667, -21.713673
  166.419, -21.819229
  168.190, -22.042055
  169.979, -22.350132
  171.788, -22.693411
  173.616, -22.995789
  175.463, -23.177258
  177.330, -23.173698
  179.217, -22.974770
  181.124, -22.628616
  183.052, -22.232712
  184.999, -21.900824
  186.968, -21.760078
  188.957, -21.900543
  190.968, -22.335327
  193.000, -22.980175
  195.054, -23.681906
  197.129, -24.257504
  199.227, -24.488966
  201.347, -24.289152
  203.489, -23.754778
  205.654, -23.101784
  207.843, -22.514044
  210.054, -22.151514
  212.289, -22.073027
  214.548, -22.242712
  216.831, -22.543600
  219.138, -22.848587
  221.470, -23.028164
  223.827, -23.033716
  226.208, -22.912807
  228.615, -22.748337
  231.048, -22.571827
  233.506, -22.388176
  235.991, -22.206694
  238.502, -22.034674
  241.040, -21.871819
  243.605, -21.722078
  246.197, -21.638277
  248.816, -21.652166
  251.464, -21.758230
  254.140, -21.880854
  256.844, -21.953337
  259.577, -21.928720
  262.339, -21.810034
  265.130, -21.655972
  267.952, -21.575960
  270.803, -21.675087
  273.684, -21.973866
  276.596, -22.387270
  279.540, -22.733143
  282.514, -22.895849
  285.520, -22.882257
  288.558, -22.775095
  291.629, -22.624350
  294.732, -22.432259
  297.868, -22.206034
  301.037, -21.976633
  304.241, -21.832064
  307.478, -21.808640
  310.750, -21.882952
  314.056, -21.967562
  317.398, -22.019253
  320.775, -22.035494
  324.189, -22.038549
  327.638, -22.046558
  331.124, -22.065376
  334.648, -22.094061
  338.209, -22.130630
  341.807, -22.177204
  345.444, -22.231445
  349.120, -22.276056
  352.835, -22.282270
  356.589, -22.245819
  360.384, -22.188112
  364.218, -22.134533
  368.094, -22.091751
  372.011, -22.062159
  375.969, -22.055635
  379.970, -22.071686
  384.013, -22.097879
  388.099, -22.116739
  392.228, -22.121220
  396.402, -22.108496
  400.620, -22.071722
  404.883, -22.017141
  409.191, -21.968903
  413.545, -21.948011
  417.945, -21.944576
  422.393, -21.925682
  426.887, -21.877729
  431.429, -21.822920
  436.020, -21.787966
  440.660, -21.773603
  445.348, -21.761288
  450.087, -21.741669
  454.876, -21.739491
  459.717, -21.791086
  464.608, -21.883358
  469.552, -21.954134
  474.548, -21.967503
  479.598, -21.957933
  484.701, -21.970537
  489.858, -22.015478
  495.071, -22.087721
  500.339, -22.156048
  505.663, -22.164145
  511.043, -22.104828
  516.481, -22.025194
  521.977, -21.990993
  527.531, -22.053932
  533.144, -22.202482
  538.817, -22.316875
  544.550, -22.307581
  550.345, -22.219563
  556.201, -22.174980
  562.119, -22.214657
  568.100, -22.316233
  574.145, -22.451513
  580.255, -22.580647
  586.429, -22.663116
  592.669, -22.725826
  598.975, -22.889557
  605.349, -23.174803
  611.790, -23.485025
  618.300, -23.742201
  624.879, -24.032310
  631.528, -24.346151
  638.248, -24.573578
  645.039, -24.661013
  651.903, -24.683186
  658.839, -24.659464
  665.850, -24.563698
  672.935, -24.392202
  680.095, -24.174500
  687.332, -23.948816
  694.645, -23.717104
  702.037, -23.413855
  709.507, -23.066385
  717.057, -22.797129
  724.686, -22.610313
  732.398, -22.461971
  740.191, -22.315054
  748.067, -22.191017
  756.027, -22.088745
  764.071, -22.020155
  772.201, -21.915651
  780.418, -21.805904
  788.722, -21.766914
  797.115, -21.792919
  805.597, -21.826586
  814.169, -21.788303
  822.832, -21.739473
  831.587, -21.745007
  840.436, -21.726477
  849.379, -21.671707
  858.417, -21.562704
  867.551, -21.511375
  876.782, -21.534651
  886.111, -21.557306
  895.540, -21.552454
  905.069, -21.494259
  914.700, -21.383993
  924.433, -21.313271
  934.269, -21.254141
  944.210, -21.207680
  954.257, -21.151114
  964.411, -21.118431
  974.673, -21.072424
  985.044, -21.040115
  995.526, -20.999502
 1006.119, -20.988359
 1016.824, -20.952211
 1027.644, -20.902832
 1038.579, -20.798944
 1049.630, -20.719212
 1060.799, -20.696608
 1072.086, -20.684746
 1083.494, -20.628922
 1095.023, -20.560558
 1106.674, -20.541061
 1118.450, -20.524614
 1130.351, -20.463366
 1142.379, -20.400513
 1154.534, -20.374531
 1166.819, -20.371773
 1179.235, -20.320108
 1191.783, -20.237890
 1204.464, -20.168926
 1217.280, -20.156691
 1230.233, -20.146580
 1243.323, -20.113806
 1256.553, -20.035702
 1269.923, -19.994978
 1283.436, -20.004492
 1297.093, -20.010027
 1310.895, -19.985670
 1324.843, -19.957573
 1338.940, -19.915352
 1353.188, -19.843439
 1367.586, -19.754126
 1382.138, -19.712246
 1396.845, -19.680836
 1411.708, -19.620510
 1426.730, -19.555357
 1441.911, -19.521343
 1457.254, -19.506615
 1472.760, -19.501951
 1488.431, -19.456566
 1504.269, -19.401773
 1520.275, -19.315226
 1536.452, -19.254086
 1552.801, -19.199783
 1569.323, -19.158712
 1586.022, -19.083834
 1602.898, -19.004187
 1619.954, -18.951122
 1637.191, -18.912315
 1654.612, -18.854378
 1672.218, -18.773741
 1690.011, -18.702957
 1707.994, -18.636278
 1726.168, -18.576283
 1744.536, -18.504343
 1763.099, -18.408354
 1781.859, -18.331278
 1800.819, -18.248878
 1819.981, -18.176050
 1839.347, -18.069521
 1858.918, -17.993799
 1878.698, -17.901884
 1898.689, -17.807198
 1918.892, -17.709946
 1939.310, -17.619883
 1959.946, -17.534235
 1980.801, -17.426590
 2001.878, -17.287531
 2023.179, -17.143938
 2044.707, -16.996319
 2066.464, -16.887018
 2088.452, -16.747459
 2110.674, -16.631817
 2133.133, -16.489546
 2155.831, -16.359154
 2178.771, -16.195848
 2201.954, -16.057003
 2225.384, -15.908891
 2249.063, -15.764378
 2272.995, -15.590996
 2297.181, -15.420002
 2321.624, -15.244467
 2346.328, -15.085949
 2371.294, -14.928818
 2396.526, -14.774611
 2422.027, -14.608487
 2447.798, -14.437253
 2473.844, -14.273939
 2500.168, -14.132820
 2526.771, -13.988492
 2553.657, -13.849481
 2580.830, -13.723701
 2608.291, -13.600538
 2636.045, -13.474106
 2664.094, -13.348380
 2692.442, -13.244200
 2721.091, -13.144901
 2750.045, -13.050616
 2779.307, -12.970042
 2808.881, -12.911386
 2838.769, -12.901538
 2868.975, -12.930991
 2899.503, -12.983375
 2930.355, -13.041357
 2961.536, -13.128794
 2993.049, -13.238552
 3024.896, -13.359742
 3057.083, -13.487062
 3089.612, -13.614845
 3122.488, -13.754055
 3155.713, -13.899489
 3189.292, -14.052234
 3223.228, -14.196918
 3257.525, -14.338929
 3292.187, -14.479219
 3327.218, -14.619446
 3362.621, -14.752818
 3398.402, -14.898393
 3434.563, -15.043230
 3471.108, -15.205278
 3508.043, -15.354427
 3545.371, -15.488761
 3583.096, -15.586045
 3621.222, -15.672011
 3659.754, -15.748963
 3698.696, -15.811505
 3738.052, -15.865913
 3777.827, -15.921951
 3818.026, -15.981300
 3858.652, -16.028765
 3899.710, -16.079336
 3941.206, -16.138487
 3983.142, -16.219988
 4025.525, -16.301237
 4068.360, -16.391346
 4111.649, -16.479219
 4155.400, -16.565136
 4199.616, -16.643547
 4244.302, -16.710337
 4289.464, -16.758947
 4335.106, -16.790163
 4381.235, -16.780443
 4427.854, -16.740984
 4474.969, -16.683228
 4522.585, -16.609095
 4570.708, -16.510937
 4619.343, -16.385477
 4668.496, -16.249554
 4718.171, -16.100122
 4768.376, -15.942371
 4819.114, -15.770407
 4870.393, -15.609070
 4922.216, -15.460933
 4974.592, -15.349922
 5027.524, -15.281890
 5081.021, -15.283705
 5135.085, -15.351619
 5189.726, -15.478880
 5244.948, -15.658747
 5300.757, -15.886858
 5357.161, -16.152548
 5414.164, -16.442745
 5471.774, -16.748463
 5529.997, -17.051802
 5588.839, -17.349953
 5648.308, -17.631605
 5708.409, -17.910288
 5769.150, -18.163734
 5830.538, -18.402679
 5892.578, -18.616684
 5955.279, -18.821136
 6018.646, -19.022394
 6082.688, -19.225357
 6147.412, -19.425928
 6212.824, -19.602057
 6278.932, -19.742447
 6345.744, -19.856697
 6413.267, -19.933781
 6481.507, -19.995909
 6550.475, -20.028454
 6620.176, -20.052938
 6690.619, -20.052597
 6761.811, -20.045029
 6833.760, -20.006741
 6906.476, -19.953583
 6979.965, -19.870316
 7054.236, -19.765430
 7129.297, -19.621326
 7205.157, -19.452656
 7281.825, -19.261503
 7359.308, -19.034622
 7437.615, -18.737919
 7516.756, -18.352076
 7596.739, -17.858992
 7677.572, -17.278875
 7759.267, -16.598433
 7841.830, -15.874277
 7925.271, -15.146348
 8009.601, -14.576762
 8094.828, -14.308832
 8180.962, -14.508225
 8268.013, -15.175497
 8355.989, -16.293118
 8444.902, -17.684910
 8534.761, -19.229729
 8625.576, -20.753717
 8717.357, -22.242989
 8810.115, -23.716211
 8903.860, -25.160179
 8998.603, -26.610880
 9094.354, -28.071720
 9191.123, -29.677282
 9288.922, -31.372770
 9387.762, -32.687641
 9487.653, -32.543625
 9588.607, -31.285831
 9690.636, -30.204201
 9793.750, -29.709044
 9897.962, -29.687447
10003.282, -29.831095
10109.723, -29.956215
10217.297, -30.049614
10326.015, -30.110085
10435.890, -30.190727
10546.934, -30.335997
10659.160, -30.576910
10772.580, -30.901640
10887.206, -31.218485
11003.053, -31.535856
11120.132, -31.846813
11238.457, -32.159416
11358.041, -32.439922
11478.897, -32.687862
11601.040, -32.911491
11724.481, -33.119621
11849.237, -33.273811
11975.320, -33.404709
12102.745, -33.505356
12231.525, -33.614017
12361.677, -33.683441
12493.212, -33.702404
12626.147, -33.633038
12760.497, -33.527020
12896.277, -33.401817
13033.501, -33.204208
13172.186, -32.912476
13312.346, -32.525826
13453.997, -32.105595
13597.155, -31.671843
13741.838, -31.199120
13888.059, -30.667318
14035.836, -30.001638
14185.187, -29.109102
14336.125, -27.960958
14488.670, -26.529972
14642.839, -24.827198
14798.647, -22.791965
14956.113, -20.748478
15115.256, -19.168921
15276.091, -18.645828
15438.638, -19.401165
15602.915, -21.504532
15768.939, -24.261517
15936.730, -26.707754
16106.307, -28.299751
16277.688, -29.061909
16450.893, -29.235046
16625.939, -29.040302
16802.850, -28.536839
16981.643, -27.805832
17162.336, -26.986958
17344.955, -26.294746
17529.516, -25.669188
17716.039, -25.330317
17904.549, -25.421989
18095.064, -26.056564
18287.607, -27.100227
18482.199, -28.211550
18678.859, -29.340179
18877.615, -30.324669
19078.484, -31.316236
19281.490, -32.246983
19486.656, -33.004574
19694.008, -33.725494
19903.563, -34.368050
20115.350, -38.670609
20329.389, -39.735062
20545.705, -40.955421
20764.324, -42.090523
20985.270, -42.121792
21208.564, -39.958260
21434.236, -37.459049
21662.311, -35.356312
21892.811, -33.870728
22125.764, -33.213272
22361.195, -33.435295
22599.131, -34.636478
22839.600, -36.634235
23082.627, -39.547836
23328.240, -43.202354
23576.467, -47.155914
23827.334, -49.056007
