Frequency(Hz),   Magnitude(dB)
   11.804, -20.652941
   11.929, -20.643475
   12.056, -20.600796
   12.184, -20.552235
   12.314, -20.501867
   12.445, -20.449856
   12.578, -20.396376
   12.711, -20.341614
   12.847, -20.285730
   12.983, -20.228777
   13.122, -20.170599
   13.261, -20.111042
   13.402, -20.050083
   13.545, -19.987900
   13.689, -19.924685
   13.835, -19.860600
   13.982, -19.795815
   14.131, -19.730453
   14.281, -19.664452
   14.433, -19.597660
   14.587, -19.529934
   14.742, -19.461319
   14.899, -19.392067
   15.057, -19.322426
   15.217, -19.252563
   15.379, -19.182447
   15.543, -19.112057
   15.708, -19.041403
   15.875, -18.970549
   16.044, -18.899561
   16.215, -18.828569
   16.388, -18.757784
   16.562, -18.687424
   16.738, -18.617605
   16.916, -18.548254
   17.096, -18.479282
   17.278, -18.410753
   17.462, -18.342869
   17.648, -18.275799
   17.836, -18.209621
   18.025, -18.144297
   18.217, -18.079874
   18.411, -18.016567
   18.607, -17.954639
   18.805, -17.894360
   19.005, -17.835983
   19.207, -17.779720
   19.412, -17.725441
   19.618, -17.672993
   19.827, -17.622499
   20.038, -17.574404
   20.251, -17.529057
   20.467, -17.486620
   20.684, -17.447226
   20.905, -17.411070
   21.127, -17.378515
   21.352, -17.349901
   21.579, -17.325392
   21.809, -17.305038
   22.041, -17.288904
   22.275, -17.277206
   22.512, -17.270191
   22.752, -17.268208
   22.994, -17.271708
   23.239, -17.280981
   23.486, -17.295027
   23.736, -17.311949
   23.988, -17.329979
   24.244, -17.348577
   24.501, -17.367783
   24.762, -17.387589
   25.026, -17.407909
   25.292, -17.428715
   25.561, -17.450117
   25.833, -17.472269
   26.108, -17.495237
   26.386, -17.518772
   26.667, -17.542625
   26.950, -17.566856
   27.237, -17.591843
   27.527, -17.617865
   27.820, -17.644802
   28.116, -17.672443
   28.415, -17.700733
   28.717, -17.729761
   29.023, -17.759642
   29.332, -17.790497
   29.644, -17.822388
   29.959, -17.855400
   30.278, -17.889574
   30.600, -17.924732
   30.926, -17.960629
   31.255, -17.997358
   31.587, -18.035208
   31.924, -18.074369
   32.263, -18.114798
   32.607, -18.156385
   32.953, -18.199070
   33.304, -18.242863
   33.658, -18.287769
   34.017, -18.333883
   34.379, -18.381443
   34.744, -18.430433
   35.114, -18.477961
   35.488, -18.523230
   35.865, -18.567169
   36.247, -18.613213
   36.633, -18.662085
   37.022, -18.713671
   37.416, -18.767569
   37.815, -18.823416
   38.217, -18.881193
   38.624, -18.941057
   39.035, -19.003119
   39.450, -19.067200
   39.870, -19.132961
   40.294, -19.200045
   40.723, -19.268209
   41.156, -19.337257
   41.594, -19.406965
   42.036, -19.476940
   42.484, -19.546730
   42.936, -19.615864
   43.393, -19.684097
   43.854, -19.751192
   44.321, -19.816822
   44.793, -19.880497
   45.269, -19.941729
   45.751, -20.000134
   46.238, -20.055079
   46.730, -20.101753
   47.227, -20.134706
   47.730, -20.151224
   48.237, -20.153500
   48.751, -20.143780
   49.269, -20.123081
   49.794, -20.092665
   50.323, -20.053938
   50.859, -20.008167
   51.400, -19.956596
   51.947, -19.900505
   52.500, -19.841265
   53.058, -19.780338
   53.623, -19.719435
   54.194, -19.660824
   54.770, -19.606985
   55.353, -19.559971
   55.942, -19.521292
   56.537, -19.492643
   57.139, -19.476454
   57.747, -19.475752
   58.361, -19.496157
   58.982, -19.543213
   59.610, -19.619137
   60.244, -19.721649
   60.885, -19.846989
   61.533, -19.991928
   62.188, -20.153210
   62.850, -20.327869
   63.518, -20.512812
   64.194, -20.704727
   64.877, -20.900093
   65.568, -21.095125
   66.265, -21.285610
   66.970, -21.467022
   67.683, -21.634581
   68.403, -21.783457
   69.131, -21.908567
   69.867, -22.003990
   70.610, -22.063932
   71.361, -22.086039
   72.121, -22.072397
   72.888, -22.028000
   73.664, -21.957981
   74.448, -21.867842
   75.240, -21.763474
   76.040, -21.650955
   76.849, -21.536486
   77.667, -21.426617
   78.494, -21.328438
   79.329, -21.249783
   80.173, -21.198973
   81.026, -21.184002
   81.888, -21.206684
   82.759, -21.272223
   83.640, -21.384888
   84.530, -21.549032
   85.430, -21.758434
   86.339, -22.003075
   87.257, -22.271317
   88.186, -22.550711
   89.124, -22.828426
   90.072, -23.091047
   91.031, -23.324234
   91.999, -23.512381
   92.978, -23.631081
   93.968, -23.638754
   94.968, -23.520916
   95.978, -23.292435
   96.999, -22.990124
   98.032, -22.634102
   99.075, -22.243952
  100.129, -21.840504
  101.194, -21.445721
  102.271, -21.082634
  103.359, -20.775772
  104.459, -20.555252
  105.571, -20.458755
  106.694, -20.470274
  107.829, -20.549835
  108.977, -20.645023
  110.136, -20.748617
  111.308, -20.857254
  112.492, -20.967190
  113.689, -21.074469
  114.899, -21.174995
  116.122, -21.266039
  117.357, -21.352013
  118.606, -21.436087
  119.868, -21.519670
  121.144, -21.598843
  122.433, -21.673336
  123.735, -21.743074
  125.052, -21.807583
  126.383, -21.866112
  127.727, -21.915411
  129.087, -21.941263
  130.460, -21.933493
  131.848, -21.890842
  133.251, -21.826347
  134.669, -21.750717
  136.102, -21.674131
  137.550, -21.607843
  139.014, -21.565493
  140.493, -21.563208
  141.988, -21.609995
  143.499, -21.704260
  145.026, -21.832911
  146.569, -21.980242
  148.129, -22.128855
  149.705, -22.259972
  151.298, -22.354679
  152.908, -22.396935
  154.535, -22.380100
  156.179, -22.311003
  157.841, -22.210199
  159.520, -22.105194
  161.218, -22.024643
  162.933, -21.991745
  164.667, -22.024952
  166.419, -22.130890
  168.190, -22.310162
  169.979, -22.549717
  171.788, -22.823330
  173.616, -23.080923
  175.463, -23.258177
  177.330, -23.301119
  179.217, -23.195679
  181.124, -22.976583
  183.052, -22.712820
  184.999, -22.485798
  186.968, -22.381187
  188.957, -22.460407
  190.968, -22.731197
  193.000, -23.137150
  195.054, -23.576200
  197.129, -23.926350
  199.227, -24.034359
  201.347, -23.855297
  203.489, -23.460712
  205.654, -22.996822
  207.843, -22.565495
  210.054, -22.259336
  212.289, -22.096716
  214.548, -22.039207
  216.831, -22.017239
  219.138, -21.994963
  221.470, -21.958761
  223.827, -21.907131
  226.208, -21.844454
  228.615, -21.771994
  231.048, -21.691843
  233.506, -21.615833
  235.991, -21.562563
  238.502, -21.545391
  241.040, -21.565937
  243.605, -21.626730
  246.197, -21.772259
  248.816, -22.042658
  251.464, -22.435816
  254.140, -22.858332
  256.844, -23.155691
  259.577, -23.254204
  262.339, -23.193176
  265.130, -23.079960
  267.952, -22.955898
  270.803, -22.824160
  273.684, -22.684830
  276.596, -22.542433
  279.540, -22.423418
  282.514, -22.372196
  285.520, -22.399593
  288.558, -22.470787
  291.629, -22.515526
  294.732, -22.499884
  297.868, -22.431330
  301.037, -22.348232
  304.241, -22.284401
  307.478, -22.248865
  310.750, -22.232101
  314.056, -22.216461
  317.398, -22.193556
  320.775, -22.161646
  324.189, -22.127499
  327.638, -22.112514
  331.124, -22.133020
  334.648, -22.182600
  338.209, -22.225082
  341.807, -22.234921
  345.444, -22.210283
  349.120, -22.163599
  352.835, -22.102150
  356.589, -22.031147
  360.384, -21.956150
  364.218, -21.880217
  368.094, -21.804228
  372.011, -21.735210
  375.969, -21.706200
  379.970, -21.727476
  384.013, -21.757542
  388.099, -21.696808
  392.228, -21.530628
  396.402, -21.391428
  400.620, -21.437605
  404.883, -21.664206
  409.191, -21.885303
  413.545, -21.934565
  417.945, -21.862589
  422.393, -21.835426
  426.887, -21.912872
  431.429, -22.006884
  436.020, -21.989840
  440.660, -21.873940
  445.348, -21.818031
  450.087, -21.905882
  454.876, -22.048567
  459.717, -22.103758
  464.608, -22.060722
  469.552, -22.006081
  474.548, -21.978956
  479.598, -21.965878
  484.701, -21.946838
  489.858, -21.898033
  495.071, -21.784386
  500.339, -21.657190
  505.663, -21.610174
  511.043, -21.678555
  516.481, -21.806116
  521.977, -21.924952
  527.531, -22.025837
  533.144, -22.106590
  538.817, -22.163315
  544.550, -22.201637
  550.345, -22.240677
  556.201, -22.307102
  562.119, -22.438332
  568.100, -22.629333
  574.145, -22.803534
  580.255, -22.910599
  586.429, -22.987852
  592.669, -23.103672
  598.975, -23.252821
  605.349, -23.418219
  611.790, -23.639978
  618.300, -23.859961
  624.879, -23.984865
  631.528, -24.051600
  638.248, -24.172100
  645.039, -24.386326
  651.903, -24.560848
  658.839, -24.593365
  665.850, -24.447989
  672.935, -24.172247
  680.095, -23.865261
  687.332, -23.546108
  694.645, -23.184706
  702.037, -22.845627
  709.507, -22.604788
  717.057, -22.500278
  724.686, -22.455446
  732.398, -22.408461
  740.191, -22.308693
  748.067, -22.231205
  756.027, -22.196873
  764.071, -22.145840
  772.201, -22.077967
  780.418, -21.995533
  788.722, -21.907944
  797.115, -21.841375
  805.597, -21.806368
  814.169, -21.787312
  822.832, -21.663523
  831.587, -21.559317
  840.436, -21.501419
  849.379, -21.498472
  858.417, -21.528763
  867.551, -21.572687
  876.782, -21.588247
  886.111, -21.504616
  895.540, -21.387774
  905.069, -21.320461
  914.700, -21.241438
  924.433, -21.202950
  934.269, -21.176960
  944.210, -21.203751
  954.257, -21.185570
  964.411, -21.139116
  974.673, -21.033199
  985.044, -20.978575
  995.526, -20.892481
 1006.119, -20.819111
 1016.824, -20.730129
 1027.644, -20.721748
 1038.579, -20.767120
 1049.630, -20.771339
 1060.799, -20.730654
 1072.086, -20.674494
 1083.494, -20.654356
 1095.023, -20.650623
 1106.674, -20.605101
 1118.450, -20.547626
 1130.351, -20.458569
 1142.379, -20.367001
 1154.534, -20.287661
 1166.819, -20.294306
 1179.235, -20.352743
 1191.783, -20.330463
 1204.464, -20.222532
 1217.280, -20.174143
 1230.233, -20.188570
 1243.323, -20.240482
 1256.553, -20.191914
 1269.923, -20.144915
 1283.436, -20.063915
 1297.093, -20.013126
 1310.895, -19.942793
 1324.843, -19.921734
 1338.940, -19.875879
 1353.188, -19.828485
 1367.586, -19.783689
 1382.138, -19.766548
 1396.845, -19.754772
 1411.708, -19.694477
 1426.730, -19.638536
 1441.911, -19.574043
 1457.254, -19.549263
 1472.760, -19.513777
 1488.431, -19.468134
 1504.269, -19.413237
 1520.275, -19.340794
 1536.452, -19.285204
 1552.801, -19.231684
 1569.323, -19.193970
 1586.022, -19.138680
 1602.898, -19.036039
 1619.954, -18.956730
 1637.191, -18.878517
 1654.612, -18.830345
 1672.218, -18.769459
 1690.011, -18.725941
 1707.994, -18.672222
 1726.168, -18.616547
 1744.536, -18.551445
 1763.099, -18.455627
 1781.859, -18.343504
 1800.819, -18.255135
 1819.981, -18.195133
 1839.347, -18.114677
 1858.918, -18.035484
 1878.698, -17.951609
 1898.689, -17.854872
 1918.892, -17.718328
 1939.310, -17.585703
 1959.946, -17.487610
 1980.801, -17.383236
 2001.878, -17.287664
 2023.179, -17.170603
 2044.707, -17.040140
 2066.464, -16.897900
 2088.452, -16.738047
 2110.674, -16.595739
 2133.133, -16.456329
 2155.831, -16.338488
 2178.771, -16.216591
 2201.954, -16.083248
 2225.384, -15.926295
 2249.063, -15.761135
 2272.995, -15.588039
 2297.181, -15.432343
 2321.624, -15.270283
 2346.328, -15.107445
 2371.294, -14.938879
 2396.526, -14.775164
 2422.027, -14.617394
 2447.798, -14.454925
 2473.844, -14.299555
 2500.168, -14.159084
 2526.771, -14.008367
 2553.657, -13.861096
 2580.830, -13.713879
 2608.291, -13.587626
 2636.045, -13.465408
 2664.094, -13.348552
 2692.442, -13.227997
 2721.091, -13.107698
 2750.045, -13.007739
 2779.307, -12.942491
 2808.881, -12.916965
 2838.769, -12.916873
 2868.975, -12.946708
 2899.503, -12.992940
 2930.355, -13.066582
 2961.536, -13.156622
 2993.049, -13.262365
 3024.896, -13.372331
 3057.083, -13.497848
 3089.612, -13.633680
 3122.488, -13.782112
 3155.713, -13.921681
 3189.292, -14.059281
 3223.228, -14.207112
 3257.525, -14.351089
 3292.187, -14.489367
 3327.218, -14.618902
 3362.621, -14.762517
 3398.402, -14.906156
 3434.563, -15.052958
 3471.108, -15.197887
 3508.043, -15.354761
 3545.371, -15.485003
 3583.096, -15.606740
 3621.222, -15.696254
 3659.754, -15.776830
 3698.696, -15.835280
 3738.052, -15.888477
 3777.827, -15.940300
 3818.026, -15.984591
 3858.652, -16.033104
 3899.710, -16.096111
 3941.206, -16.157980
 3983.142, -16.217737
 4025.525, -16.275717
 4068.360, -16.359961
 4111.649, -16.447386
 4155.400, -16.536726
 4199.616, -16.627459
 4244.302, -16.713017
 4289.464, -16.766901
 4335.106, -16.783764
 4381.235, -16.775846
 4427.854, -16.748003
 4474.969, -16.697857
 4522.585, -16.620138
 4570.708, -16.516573
 4619.343, -16.391809
 4668.496, -16.263916
 4718.171, -16.112530
 4768.376, -15.944889
 4819.114, -15.762463
 4870.393, -15.606628
 4922.216, -15.467465
 4974.592, -15.365524
 5027.524, -15.296710
 5081.021, -15.291115
 5135.085, -15.354051
 5189.726, -15.490829
 5244.948, -15.682388
 5300.757, -15.918091
 5357.161, -16.186317
 5414.164, -16.461180
 5471.774, -16.754051
 5529.997, -17.054834
 5588.839, -17.352137
 5648.308, -17.639111
 5708.409, -17.897003
 5769.150, -18.149220
 5830.538, -18.368271
 5892.578, -18.594875
 5955.279, -18.818361
 6018.646, -19.031902
 6082.688, -19.240892
 6147.412, -19.420883
 6212.824, -19.590183
 6278.932, -19.725471
 6345.744, -19.838482
 6413.267, -19.932245
 6481.507, -20.010338
 6550.475, -20.073610
 6620.176, -20.083904
 6690.619, -20.073034
 6761.811, -20.042282
 6833.760, -20.009220
 6906.476, -19.951027
 6979.965, -19.863010
 7054.236, -19.755312
 7129.297, -19.610998
 7205.157, -19.445551
 7281.825, -19.241791
 7359.308, -19.009789
 7437.615, -18.715450
 7516.756, -18.347012
 7596.739, -17.858181
 7677.572, -17.264790
 7759.267, -16.589211
 7841.830, -15.884768
 7925.271, -15.177400
 8009.601, -14.596675
 8094.828, -14.327305
 8180.962, -14.519879
 8268.013, -15.198204
 8355.989, -16.299011
 8444.902, -17.671188
 8534.761, -19.190170
 8625.576, -20.727472
 8717.357, -22.263121
 8810.115, -23.733158
 8903.860, -25.156002
 8998.603, -26.560097
 9094.354, -28.035652
 9191.123, -29.653679
 9288.922, -31.367344
 9387.762, -32.685555
 9487.653, -32.586769
 9588.607, -31.360580
 9690.636, -30.249357
 9793.750, -29.711790
 9897.962, -29.675468
10003.282, -29.854498
10109.723, -29.978378
10217.297, -30.057873
10326.015, -30.102493
10435.890, -30.237066
10546.934, -30.356625
10659.160, -30.573896
10772.580, -30.833805
10887.206, -31.122898
11003.053, -31.434032
11120.132, -31.779131
11238.457, -32.158787
11358.041, -32.487835
11478.897, -32.705486
11601.040, -32.872829
11724.481, -33.040707
11849.237, -33.284977
11975.320, -33.570313
12102.745, -33.864433
12231.525, -34.074757
12361.677, -34.274490
12493.212, -34.260960
12626.147, -34.232849
12760.497, -34.074169
12896.277, -33.960052
13033.501, -33.801716
13172.186, -33.407635
13312.346, -32.904823
13453.997, -32.476986
13597.155, -32.244228
13741.838, -31.925591
13888.059, -31.418461
14035.836, -30.732248
14185.187, -29.713121
14336.125, -28.413267
14488.670, -26.880600
14642.839, -25.310616
14798.647, -23.329599
14956.113, -21.275202
15115.256, -19.544773
15276.091, -18.936451
15438.638, -19.761539
15602.915, -22.080952
15768.939, -25.071920
15936.730, -27.300615
16106.307, -28.711872
16277.688, -29.501781
16450.893, -29.680651
16625.939, -29.473757
16802.850, -28.959507
16981.643, -28.373249
17162.336, -27.634197
17344.955, -26.900635
17529.516, -26.091503
17716.039, -25.714476
17904.549, -25.830124
18095.064, -26.600416
18287.607, -27.658699
18482.199, -28.857578
18678.859, -30.071390
18877.615, -31.186214
19078.484, -32.088364
19281.490, -32.860081
19486.656, -33.697971
19694.008, -34.407536
19903.563, -35.007214
20115.350, -39.141853
20329.389, -40.239250
20545.705, -41.599522
20764.324, -42.849876
20985.270, -42.674149
21208.564, -40.517578
21434.236, -37.755718
21662.311, -35.766296
21892.811, -34.376469
22125.764, -33.694031
22361.195, -33.906727
22599.131, -34.975349
22839.600, -36.969521
23082.627, -39.453239
23328.240, -42.857761
23576.467, -47.169514
23827.334, -49.837265
