Frequency(Hz),Magnitude(dB)
11.804,-19.960581
11.929,-20.00002
12.056,-20.044476
12.184,-20.088504
12.314,-20.131242
12.445,-20.172831
12.578,-20.213426
12.711,-20.253182
12.847,-20.29224
12.983,-20.33062
13.122,-20.368147
13.261,-20.404624
13.402,-20.439999
13.545,-20.474415
13.689,-20.508028
13.835,-20.540972
13.982,-20.573363
14.131,-20.605286
14.281,-20.636629
14.433,-20.667199
14.587,-20.696804
14.742,-20.72544
14.899,-20.753294
15.057,-20.780567
15.217,-20.80735
15.379,-20.833572
15.543,-20.859134
15.708,-20.883973
15.875,-20.908085
16.044,-20.931463
16.215,-20.954157
16.388,-20.976285
16.562,-20.99799
16.738,-21.01929
16.916,-21.040022
17.096,-21.060003
17.278,-21.079187
17.462,-21.097661
17.648,-21.115502
17.836,-21.132644
18.025,-21.148948
18.217,-21.164324
18.411,-21.178862
18.607,-21.192675
18.805,-21.205884
19.005,-21.218606
19.207,-21.230886
19.412,-21.242441
19.618,-21.252927
19.827,-21.262307
20.038,-21.270827
20.251,-21.27866
20.467,-21.285758
20.684,-21.29204
20.905,-21.2975
21.127,-21.302257
21.352,-21.30642
21.579,-21.309917
21.809,-21.312535
22.041,-21.314086
22.275,-21.314501
22.512,-21.313743
22.752,-21.311858
22.994,-21.308996
23.239,-21.305213
23.486,-21.299886
23.736,-21.292024
23.988,-21.280826
24.244,-21.266138
24.501,-21.248075
24.762,-21.226676
25.026,-21.20192
25.292,-21.173847
25.561,-21.142648
25.833,-21.108561
26.108,-21.071745
26.386,-21.032078
26.667,-20.9894
26.95,-20.943929
27.237,-20.896185
27.527,-20.84659
27.82,-20.795193
28.116,-20.741982
28.415,-20.687082
28.717,-20.630801
29.023,-20.573486
29.332,-20.515495
29.644,-20.457163
29.959,-20.398845
30.278,-20.340876
30.6,-20.283398
30.926,-20.22651
31.255,-20.170655
31.587,-20.11651
31.924,-20.064663
32.263,-20.015484
32.607,-19.969331
32.953,-19.926617
33.304,-19.887839
33.658,-19.853525
34.017,-19.824339
34.379,-19.801098
34.744,-19.785059
35.114,-19.781078
35.488,-19.789915
35.865,-19.809782
36.247,-19.835365
36.633,-19.865498
37.022,-19.899873
37.416,-19.938004
37.815,-19.979403
38.217,-20.023927
38.624,-20.071599
39.035,-20.122399
39.45,-20.175987
39.87,-20.231863
40.294,-20.289501
40.723,-20.348462
41.156,-20.408351
41.594,-20.468725
42.036,-20.528969
42.484,-20.588376
42.936,-20.646234
43.393,-20.702002
43.854,-20.755157
44.321,-20.805054
44.793,-20.850885
45.269,-20.891788
45.751,-20.927014
46.238,-20.955939
46.73,-20.97799
47.227,-20.993685
47.73,-21.004813
48.237,-21.013486
48.751,-21.020118
49.269,-21.02479
49.794,-21.027868
50.323,-21.029788
50.859,-21.030799
51.4,-21.031008
51.947,-21.030518
52.5,-21.029422
53.058,-21.027822
53.623,-21.025972
54.194,-21.024591
54.77,-21.024519
55.353,-21.02605
55.942,-21.028848
56.537,-21.032638
57.139,-21.037754
57.747,-21.044615
58.361,-21.051917
58.982,-21.057713
59.61,-21.061361
60.244,-21.064205
60.885,-21.067218
61.533,-21.070058
62.188,-21.072396
62.85,-21.074371
63.518,-21.076236
64.194,-21.078265
64.877,-21.080759
65.568,-21.084004
66.265,-21.088157
66.97,-21.093318
67.683,-21.099636
68.403,-21.10753
69.131,-21.117505
69.867,-21.129747
70.61,-21.144079
71.361,-21.160592
72.121,-21.179694
72.888,-21.201496
73.664,-21.225663
74.448,-21.251835
75.24,-21.279622
76.04,-21.308444
76.849,-21.33738
77.667,-21.365416
78.494,-21.391609
79.329,-21.415282
80.173,-21.435749
81.026,-21.451409
81.888,-21.453372
82.759,-21.437447
83.64,-21.405574
84.53,-21.367239
85.43,-21.326017
86.339,-21.282883
87.257,-21.238043
88.186,-21.191736
89.124,-21.144729
90.072,-21.098116
91.031,-21.053115
91.999,-21.011498
92.978,-20.977715
93.968,-20.960634
94.968,-20.962198
95.978,-20.981495
96.999,-21.010794
98.032,-21.047851
99.075,-21.090976
100.129,-21.138315
101.194,-21.187632
102.271,-21.236206
103.359,-21.280855
104.459,-21.318726
105.571,-21.350303
106.694,-21.374513
107.829,-21.395176
108.977,-21.411577
110.136,-21.42554
111.308,-21.438809
112.492,-21.452944
113.689,-21.469461
114.899,-21.489799
116.122,-21.515142
117.357,-21.545183
118.606,-21.578651
119.868,-21.614604
121.144,-21.652399
122.433,-21.691689
123.735,-21.731812
125.052,-21.771563
126.383,-21.809368
127.727,-21.842583
129.087,-21.864886
130.46,-21.871228
131.848,-21.86176
133.251,-21.842353
134.669,-21.819017
136.102,-21.797236
137.55,-21.783152
139.014,-21.785428
140.493,-21.820577
141.988,-21.900185
143.499,-22.026997
145.026,-22.18837
146.569,-22.368667
148.129,-22.550693
149.705,-22.714751
151.298,-22.829226
152.908,-22.848867
154.535,-22.756494
156.179,-22.573792
157.841,-22.347219
159.52,-22.114332
161.218,-21.912081
162.933,-21.774573
164.667,-21.7158
166.419,-21.723927
168.19,-21.784465
169.979,-21.887487
171.788,-22.029945
173.616,-22.18876
175.463,-22.337444
177.33,-22.460493
179.217,-22.553131
181.124,-22.613527
183.052,-22.645286
184.999,-22.659812
186.968,-22.668458
188.957,-22.680297
190.968,-22.703277
193.0,-22.742219
195.054,-22.791554
197.129,-22.838288
199.227,-22.847253
201.347,-22.790622
203.489,-22.686287
205.654,-22.5734
207.843,-22.477207
210.054,-22.41383
212.289,-22.376337
214.548,-22.358658
216.831,-22.351455
219.138,-22.346651
221.47,-22.338487
223.827,-22.324972
226.208,-22.312314
228.615,-22.303544
231.048,-22.297442
233.506,-22.302552
235.991,-22.333842
238.502,-22.397569
241.04,-22.480723
243.605,-22.561514
246.197,-22.613413
248.816,-22.631648
251.464,-22.630011
254.14,-22.629416
256.844,-22.625531
259.577,-22.610234
262.339,-22.584783
265.13,-22.558267
267.952,-22.533301
270.803,-22.507242
273.684,-22.480082
276.596,-22.456167
279.54,-22.440033
282.514,-22.438233
285.52,-22.453129
288.558,-22.476584
291.629,-22.483428
294.732,-22.457046
297.868,-22.402711
301.037,-22.343497
304.241,-22.301857
307.478,-22.283939
310.75,-22.286535
314.056,-22.293475
317.398,-22.293422
320.775,-22.285516
324.189,-22.275264
327.638,-22.259247
331.124,-22.231158
334.648,-22.192904
338.209,-22.151652
341.807,-22.106094
345.444,-22.058117
349.12,-22.023563
352.835,-22.032269
356.589,-22.089286
360.384,-22.161645
364.218,-22.193245
368.094,-22.169687
372.011,-22.121869
375.969,-22.083491
379.97,-22.062053
384.013,-22.049656
388.099,-22.037971
392.228,-22.024885
396.402,-22.012956
400.62,-22.003105
404.883,-21.994984
409.191,-21.985239
413.545,-21.964637
417.945,-21.94108
422.393,-21.932695
426.887,-21.944713
431.429,-21.960918
436.02,-21.956366
440.66,-21.932543
445.348,-21.910067
450.087,-21.899981
454.876,-21.905215
459.717,-21.923526
464.608,-21.949999
469.552,-21.968952
474.548,-21.967996
479.598,-21.955421
484.701,-21.940364
489.858,-21.927231
495.071,-21.916029
500.339,-21.915709
505.663,-21.932774
511.043,-21.965602
516.481,-22.01895
521.977,-22.081153
527.531,-22.127339
533.144,-22.143076
538.817,-22.150593
544.55,-22.177368
550.345,-22.232388
556.201,-22.303882
562.119,-22.379115
568.1,-22.451176
574.145,-22.546299
580.255,-22.680679
586.429,-22.844666
592.669,-23.015147
598.975,-23.214042
605.349,-23.448628
611.79,-23.706898
618.3,-23.956006
624.879,-24.195126
631.528,-24.414306
638.248,-24.591047
645.039,-24.674322
651.903,-24.657467
658.839,-24.552961
665.85,-24.382301
672.935,-24.149633
680.095,-23.896474
687.332,-23.637215
694.645,-23.351045
702.037,-23.080627
709.507,-22.866843
717.057,-22.724513
724.686,-22.595678
732.398,-22.465742
740.191,-22.336914
748.067,-22.223129
756.027,-22.135198
764.071,-22.08225
772.201,-22.036369
780.418,-21.989087
788.722,-21.942677
797.115,-21.886072
805.597,-21.825443
814.169,-21.764351
822.832,-21.722484
831.587,-21.685902
840.436,-21.639955
849.379,-21.586004
858.417,-21.534781
867.551,-21.506408
876.782,-21.486313
886.111,-21.461805
895.54,-21.434412
905.069,-21.414018
914.7,-21.377368
924.433,-21.327964
934.269,-21.276984
944.21,-21.238938
954.257,-21.201197
964.411,-21.158279
974.673,-21.104385
985.044,-21.047491
995.526,-20.986589
1006.119,-20.935248
1016.824,-20.895133
1027.644,-20.862761
1038.579,-20.824791
1049.63,-20.784677
1060.799,-20.752131
1072.086,-20.721585
1083.494,-20.682459
1095.023,-20.633663
1106.674,-20.58493
1118.45,-20.542664
1130.351,-20.50406
1142.379,-20.464263
1154.534,-20.425018
1166.819,-20.388425
1179.235,-20.356476
1191.783,-20.323679
1204.464,-20.286141
1217.28,-20.241791
1230.233,-20.199515
1243.323,-20.167632
1256.553,-20.139114
1269.923,-20.108894
1283.436,-20.075652
1297.093,-20.036981
1310.895,-19.995787
1324.843,-19.955717
1338.94,-19.915735
1353.188,-19.875728
1367.586,-19.835017
1382.138,-19.796598
1396.845,-19.760105
1411.708,-19.714548
1426.73,-19.669076
1441.911,-19.61518
1457.254,-19.568153
1472.76,-19.522014
1488.431,-19.473106
1504.269,-19.416899
1520.275,-19.361252
1536.452,-19.311167
1552.801,-19.265661
1569.323,-19.21465
1586.022,-19.156042
1602.898,-19.088334
1619.954,-19.023198
1637.191,-18.960855
1654.612,-18.904174
1672.218,-18.8398
1690.011,-18.77478
1707.994,-18.704331
1726.168,-18.634071
1744.536,-18.563095
1763.099,-18.481685
1781.859,-18.400266
1800.819,-18.315104
1819.981,-18.235109
1839.347,-18.149519
1858.918,-18.066346
1878.698,-17.977909
1898.689,-17.880327
1918.892,-17.773273
1939.31,-17.665891
1959.946,-17.562528
1980.801,-17.457507
2001.878,-17.340645
2023.179,-17.213737
2044.707,-17.079726
2066.464,-16.944139
2088.452,-16.804452
2110.674,-16.669906
2133.133,-16.536272
2155.831,-16.396081
2178.771,-16.245176
2201.954,-16.098767
2225.384,-15.951098
2249.063,-15.799866
2272.995,-15.62935
2297.181,-15.459147
2321.624,-15.290006
2346.328,-15.131952
2371.294,-14.973483
2396.526,-14.807622
2422.027,-14.642817
2447.798,-14.478446
2473.844,-14.329471
2500.168,-14.187667
2526.771,-14.044535
2553.657,-13.904223
2580.83,-13.771504
2608.291,-13.641524
2636.045,-13.509883
2664.094,-13.375695
2692.442,-13.249723
2721.091,-13.134798
2750.045,-13.035698
2779.307,-12.966349
2808.881,-12.926591
2838.769,-12.927046
2868.975,-12.956203
2899.503,-13.01487
2930.355,-13.093742
2961.536,-13.190387
2993.049,-13.300028
3024.896,-13.420493
3057.083,-13.554535
3089.612,-13.690776
3122.488,-13.832316
3155.713,-13.973416
3189.292,-14.120285
3223.228,-14.268721
3257.525,-14.408257
3292.187,-14.543645
3327.218,-14.676465
3362.621,-14.8166
3398.402,-14.964913
3434.563,-15.113727
3471.108,-15.261971
3508.043,-15.402882
3545.371,-15.536762
3583.096,-15.64952
3621.222,-15.741146
3659.754,-15.81721
3698.696,-15.879169
3738.052,-15.928825
3777.827,-15.972418
3818.026,-16.01668
3858.652,-16.059239
3899.71,-16.108085
3941.206,-16.16064
3983.142,-16.227469
4025.525,-16.303844
4068.36,-16.392874
4111.649,-16.486383
4155.4,-16.587172
4199.616,-16.687694
4244.302,-16.776099
4289.464,-16.835341
4335.106,-16.865468
4381.235,-16.867406
4427.854,-16.842517
4474.969,-16.791005
4522.585,-16.714526
4570.708,-16.617742
4619.343,-16.502881
4668.496,-16.371156
4718.171,-16.215038
4768.376,-16.047526
4819.114,-15.878872
4870.393,-15.71641
4922.216,-15.568374
4974.592,-15.447828
5027.524,-15.375536
5081.021,-15.359389
5135.085,-15.411506
5189.726,-15.524614
5244.948,-15.698834
5300.757,-15.924455
5357.161,-16.19551
5414.164,-16.478924
5471.774,-16.769485
5529.997,-17.057156
5588.839,-17.343389
5648.308,-17.622116
5708.409,-17.886358
5769.15,-18.138217
5830.538,-18.366466
5892.578,-18.586557
5955.279,-18.79451
6018.646,-18.994681
6082.688,-19.191346
6147.412,-19.375102
6212.824,-19.543467
6278.932,-19.682329
6345.744,-19.796499
6413.267,-19.883048
6481.507,-19.94588
6550.475,-19.984764
6620.176,-19.997789
6690.619,-19.989556
6761.811,-19.964256
6833.76,-19.922096
6906.476,-19.856605
6979.965,-19.765146
7054.236,-19.64817
7129.297,-19.500769
7205.157,-19.327792
7281.825,-19.116401
7359.308,-18.867698
7437.615,-18.559419
7516.756,-18.163399
7596.739,-17.655558
7677.572,-17.047224
7759.267,-16.363382
7841.83,-15.649126
7925.271,-14.975298
8009.601,-14.491105
8094.828,-14.352392
8180.962,-14.684665
8268.013,-15.471242
8355.989,-16.655156
8444.902,-18.059708
8534.761,-19.575784
8625.576,-21.062085
8717.357,-22.515289
8810.115,-23.931557
8903.86,-25.293296
8998.603,-26.64818
9094.354,-28.050018
9191.123,-29.577586
9288.922,-31.217313
9387.762,-32.554285
9487.653,-32.606659
9588.607,-31.492868
9690.636,-30.427692
9793.75,-29.90552
9897.962,-29.864087
10003.282,-30.014685
10109.723,-30.138032
10217.297,-30.187585
10326.015,-30.220742
10435.89,-30.30122
10546.934,-30.453682
10659.16,-30.690366
10772.58,-30.992611
10887.206,-31.309612
11003.053,-31.622648
11120.132,-31.924828
11238.457,-32.209411
11358.041,-32.46826
11478.897,-32.699742
11601.04,-32.909028
11724.481,-33.096879
11849.237,-33.26212
11975.32,-33.41739
12102.745,-33.549639
12231.525,-33.646485
12361.677,-33.702549
12493.212,-33.704907
12626.147,-33.657946
12760.497,-33.546727
12896.277,-33.382525
13033.501,-33.150121
13172.186,-32.83413
13312.346,-32.455641
13453.997,-32.037907
13597.155,-31.608786
13741.838,-31.144935
13888.059,-30.594341
14035.836,-29.888964
14185.187,-28.947635
14336.125,-27.749495
14488.67,-26.2627
14642.839,-24.508808
14798.647,-22.466329
14956.113,-20.468571
15115.256,-19.043227
15276.091,-18.699004
15438.638,-19.648656
15602.915,-21.850409
15768.939,-24.602647
15936.73,-26.992674
16106.307,-28.548708
16277.688,-29.279272
16450.893,-29.413554
16625.939,-29.149907
16802.85,-28.615265
16981.643,-27.88791
17162.336,-27.072771
17344.955,-26.297936
17529.516,-25.706275
17716.039,-25.463361
17904.549,-25.684719
18095.064,-26.347707
18287.607,-27.352716
18482.199,-28.500387
18678.859,-29.695558
18877.615,-30.783759
19078.484,-31.736953
19281.49,-32.546774
19486.656,-33.257857
19694.008,-33.86843
19903.563,-34.422345
20115.35,-38.561587
20329.389,-39.575241
20545.705,-40.79196
20764.324,-41.955157
20985.27,-41.892776
21208.564,-39.926978
21434.236,-37.458893
21662.311,-35.472792
21892.811,-34.180213
22125.764,-33.597743
22361.195,-33.807404
22599.131,-34.807824
22839.6,-36.673893
23082.627,-39.378933
23328.24,-43.115887
23576.467,-47.661592
23827.334,-51.229667
