Frequency(Hz),   Magnitude(dB)
   11.804, -18.874329
   11.929, -18.841583
   12.056, -18.758621
   12.184, -18.667574
   12.314, -18.574654
   12.445, -18.480022
   12.578, -18.383884
   12.711, -18.286398
   12.847, -18.187771
   12.983, -18.088036
   13.122, -17.987066
   13.261, -17.884718
   13.402, -17.780958
   13.545, -17.676003
   13.689, -17.570044
   13.835, -17.463263
   13.982, -17.355839
   14.131, -17.247906
   14.281, -17.139408
   14.433, -17.030216
   14.587, -16.920214
   14.742, -16.809446
   14.899, -16.698175
   15.057, -16.586678
   15.217, -16.475130
   15.379, -16.363529
   15.543, -16.251873
   15.708, -16.140173
   15.875, -16.028530
   16.044, -15.917021
   16.215, -15.805794
   16.388, -15.695088
   16.562, -15.585131
   16.738, -15.476079
   16.916, -15.367874
   17.096, -15.260460
   17.278, -15.153916
   17.462, -15.048468
   17.648, -14.944319
   17.836, -14.841568
   18.025, -14.740213
   18.217, -14.640324
   18.411, -14.542159
   18.607, -14.445995
   18.805, -14.352137
   19.005, -14.260878
   19.207, -14.172466
   19.412, -14.086802
   19.618, -14.003769
   19.827, -13.923531
   20.038, -13.846557
   20.251, -13.773269
   20.467, -13.703842
   20.684, -13.638460
   20.905, -13.577376
   21.127, -13.520960
   21.352, -13.469630
   21.579, -13.423594
   21.809, -13.382948
   22.041, -13.347816
   22.275, -13.318456
   22.512, -13.295173
   22.752, -13.278368
   22.994, -13.268555
   23.239, -13.266156
   23.486, -13.270913
   23.736, -13.282026
   23.988, -13.298713
   24.244, -13.320724
   24.501, -13.348025
   24.762, -13.380477
   25.026, -13.417871
   25.292, -13.460018
   25.561, -13.506884
   25.833, -13.558428
   26.108, -13.614527
   26.386, -13.674729
   26.667, -13.738543
   26.950, -13.805785
   27.237, -13.876575
   27.527, -13.950883
   27.820, -14.028287
   28.116, -14.108249
   28.415, -14.190344
   28.717, -14.274276
   29.023, -14.359764
   29.332, -14.446486
   29.644, -14.534043
   29.959, -14.622015
   30.278, -14.709918
   30.600, -14.797014
   30.926, -14.882473
   31.255, -14.965752
   31.587, -15.046468
   31.924, -15.124122
   32.263, -15.197908
   32.607, -15.266933
   32.953, -15.330313
   33.304, -15.387160
   33.658, -15.436559
   34.017, -15.477638
   34.379, -15.509597
   34.744, -15.531617
   35.114, -15.543000
   35.488, -15.545477
   35.865, -15.541837
   36.247, -15.534761
   36.633, -15.524820
   37.022, -15.512120
   37.416, -15.496542
   37.815, -15.478041
   38.217, -15.456910
   38.624, -15.433662
   39.035, -15.408806
   39.450, -15.382565
   39.870, -15.355039
   40.294, -15.326364
   40.723, -15.296794
   41.156, -15.266680
   41.594, -15.236377
   42.036, -15.206120
   42.484, -15.176107
   42.936, -15.146584
   43.393, -15.118039
   43.854, -15.091024
   44.321, -15.066066
   44.793, -15.043576
   45.269, -15.023974
   45.751, -15.007888
   46.238, -14.996027
   46.730, -14.987998
   47.227, -14.982262
   47.730, -14.977331
   48.237, -14.972683
   48.751, -14.968362
   49.269, -14.964322
   49.794, -14.960790
   50.323, -14.958055
   50.859, -14.956193
   51.400, -14.955155
   51.947, -14.954845
   52.500, -14.955173
   53.058, -14.956035
   53.623, -14.957443
   54.194, -14.959897
   54.770, -14.963984
   55.353, -14.969727
   55.942, -14.976519
   56.537, -14.983786
   57.139, -14.991571
   57.747, -15.000054
   58.361, -15.008891
   58.982, -15.017789
   59.610, -15.026995
   60.244, -15.037374
   60.885, -15.049291
   61.533, -15.062261
   62.188, -15.075867
   62.850, -15.090128
   63.518, -15.105192
   64.194, -15.121212
   64.877, -15.138365
   65.568, -15.156823
   66.265, -15.176602
   66.970, -15.197661
   67.683, -15.220015
   68.403, -15.243932
   69.131, -15.269745
   69.867, -15.297295
   70.610, -15.326471
   71.361, -15.357951
   72.121, -15.392940
   72.888, -15.431969
   73.664, -15.474608
   74.448, -15.520357
   75.240, -15.568664
   76.040, -15.618774
   76.849, -15.669586
   77.667, -15.719914
   78.494, -15.768621
   79.329, -15.814832
   80.173, -15.857662
   81.026, -15.895573
   81.888, -15.922308
   82.759, -15.933772
   83.640, -15.929564
   84.530, -15.914991
   85.430, -15.893433
   86.339, -15.866772
   87.257, -15.836286
   88.186, -15.803349
   89.124, -15.770017
   90.072, -15.738752
   91.031, -15.712254
   91.999, -15.693805
   92.978, -15.687470
   93.968, -15.695811
   94.968, -15.715961
   95.978, -15.742681
   96.999, -15.771688
   98.032, -15.802571
   99.075, -15.835393
  100.129, -15.870406
  101.194, -15.907849
  102.271, -15.947909
  103.359, -15.990769
  104.459, -16.036123
  105.571, -16.082373
  106.694, -16.129740
  107.829, -16.179489
  108.977, -16.233555
  110.136, -16.291344
  111.308, -16.351477
  112.492, -16.412346
  113.689, -16.472294
  114.899, -16.529562
  116.122, -16.581867
  117.357, -16.624611
  118.606, -16.654516
  119.868, -16.671114
  121.144, -16.678198
  122.433, -16.679850
  123.735, -16.680122
  125.052, -16.682957
  126.383, -16.692457
  127.727, -16.713737
  129.087, -16.754925
  130.460, -16.818031
  131.848, -16.900198
  133.251, -16.993593
  134.669, -17.093678
  136.102, -17.195238
  137.550, -17.293230
  139.014, -17.384136
  140.493, -17.467567
  141.988, -17.543518
  143.499, -17.613274
  145.026, -17.677704
  146.569, -17.740244
  148.129, -17.804371
  149.705, -17.873613
  151.298, -17.951889
  152.908, -18.043898
  154.535, -18.152061
  156.179, -18.274405
  157.841, -18.406298
  159.520, -18.542896
  161.218, -18.677694
  162.933, -18.791595
  164.667, -18.862377
  166.419, -18.888083
  168.190, -18.894749
  169.979, -18.914959
  171.788, -18.963419
  173.616, -19.034397
  175.463, -19.117924
  177.330, -19.201464
  179.217, -19.271233
  181.124, -19.313349
  183.052, -19.327505
  184.999, -19.323576
  186.968, -19.315287
  188.957, -19.313349
  190.968, -19.322889
  193.000, -19.340878
  195.054, -19.362085
  197.129, -19.382063
  199.227, -19.399006
  201.347, -19.413940
  203.489, -19.427595
  205.654, -19.437424
  207.843, -19.440704
  210.054, -19.436632
  212.289, -19.420954
  214.548, -19.390759
  216.831, -19.348085
  219.138, -19.305792
  221.470, -19.291019
  223.827, -19.334003
  226.208, -19.442396
  228.615, -19.588575
  231.048, -19.727274
  233.506, -19.825357
  235.991, -19.882008
  238.502, -19.915495
  241.040, -19.945625
  243.605, -19.977636
  246.197, -20.011185
  248.816, -20.047600
  251.464, -20.086716
  254.140, -20.126865
  256.844, -20.163509
  259.577, -20.192890
  262.339, -20.215033
  265.130, -20.234415
  267.952, -20.256895
  270.803, -20.285212
  273.684, -20.319574
  276.596, -20.358929
  279.540, -20.402964
  282.514, -20.451811
  285.520, -20.505920
  288.558, -20.565880
  291.629, -20.632486
  294.732, -20.709236
  297.868, -20.796618
  301.037, -20.886459
  304.241, -20.945633
  307.478, -20.949751
  310.750, -20.906647
  314.056, -20.865534
  317.398, -20.863209
  320.775, -20.905485
  324.189, -20.978798
  327.638, -21.071960
  331.124, -21.186108
  334.648, -21.312153
  338.209, -21.413782
  341.807, -21.445326
  345.444, -21.406803
  349.120, -21.350706
  352.835, -21.328930
  356.589, -21.348011
  360.384, -21.373560
  364.218, -21.360102
  368.094, -21.296434
  372.011, -21.217871
  375.969, -21.172104
  379.970, -21.168861
  384.013, -21.179911
  388.099, -21.173613
  392.228, -21.145630
  396.402, -21.111677
  400.620, -21.084469
  404.883, -21.063839
  409.191, -21.041512
  413.545, -21.011379
  417.945, -20.977922
  422.393, -20.957521
  426.887, -20.956432
  431.429, -20.952034
  436.020, -20.908134
  440.660, -20.830305
  445.348, -20.771240
  450.087, -20.759184
  454.876, -20.777128
  459.717, -20.788116
  464.608, -20.795988
  469.552, -20.845774
  474.548, -20.945192
  479.598, -21.008970
  484.701, -20.951374
  489.858, -20.859472
  495.071, -20.881819
  500.339, -21.006956
  505.663, -21.091423
  511.043, -21.069557
  516.481, -21.011648
  521.977, -20.990389
  527.531, -21.035170
  533.144, -21.130829
  538.817, -21.167164
  544.550, -21.086039
  550.345, -21.007414
  556.201, -21.045076
  562.119, -21.199165
  568.100, -21.362511
  574.145, -21.437414
  580.255, -21.402296
  586.429, -21.297083
  592.669, -21.226641
  598.975, -21.218805
  605.349, -21.275551
  611.790, -21.396431
  618.300, -21.516850
  624.879, -21.569065
  631.528, -21.606035
  638.248, -21.694702
  645.039, -21.770111
  651.903, -21.771866
  658.839, -21.758701
  665.850, -21.830267
  672.935, -21.939676
  680.095, -21.968775
  687.332, -21.946215
  694.645, -21.951262
  702.037, -22.025124
  709.507, -22.104109
  717.057, -22.131874
  724.686, -22.135536
  732.398, -22.126993
  740.191, -22.110691
  748.067, -22.076986
  756.027, -22.036798
  764.071, -22.043215
  772.201, -22.049976
  780.418, -22.051628
  788.722, -22.056440
  797.115, -22.078106
  805.597, -22.110943
  814.169, -22.134373
  822.832, -22.189178
  831.587, -22.235376
  840.436, -22.239811
  849.379, -22.208178
  858.417, -22.167515
  867.551, -22.104322
  876.782, -22.044704
  886.111, -22.006496
  895.540, -22.029272
  905.069, -22.051252
  914.700, -22.016432
  924.433, -21.982225
  934.269, -21.959183
  944.210, -21.950420
  954.257, -21.904936
  964.411, -21.848497
  974.673, -21.823910
  985.044, -21.786509
  995.526, -21.768526
 1006.119, -21.724825
 1016.824, -21.682535
 1027.644, -21.622179
 1038.579, -21.563105
 1049.630, -21.507843
 1060.799, -21.460243
 1072.086, -21.408079
 1083.494, -21.348841
 1095.023, -21.289862
 1106.674, -21.245827
 1118.450, -21.246918
 1130.351, -21.248249
 1142.379, -21.249340
 1154.534, -21.203093
 1166.819, -21.147663
 1179.235, -21.076801
 1191.783, -21.019073
 1204.464, -20.955135
 1217.280, -20.897324
 1230.233, -20.821934
 1243.323, -20.771307
 1256.553, -20.750118
 1269.923, -20.739874
 1283.436, -20.732546
 1297.093, -20.705809
 1310.895, -20.687078
 1324.843, -20.644972
 1338.940, -20.616369
 1353.188, -20.558714
 1367.586, -20.517771
 1382.138, -20.484465
 1396.845, -20.495235
 1411.708, -20.496260
 1426.730, -20.461729
 1441.911, -20.395233
 1457.254, -20.327881
 1472.760, -20.270107
 1488.431, -20.253208
 1504.269, -20.217413
 1520.275, -20.205099
 1536.452, -20.118858
 1552.801, -20.078194
 1569.323, -20.020443
 1586.022, -19.964457
 1602.898, -19.899649
 1619.954, -19.820129
 1637.191, -19.805660
 1654.612, -19.756935
 1672.218, -19.671940
 1690.011, -19.558279
 1707.994, -19.446692
 1726.168, -19.371552
 1744.536, -19.268303
 1763.099, -19.162882
 1781.859, -19.087389
 1800.819, -18.994041
 1819.981, -18.939924
 1839.347, -18.822723
 1858.918, -18.683392
 1878.698, -18.503719
 1898.689, -18.358459
 1918.892, -18.152918
 1939.310, -17.868925
 1959.946, -17.522209
 1980.801, -17.193436
 2001.878, -16.837473
 2023.179, -16.546337
 2044.707, -16.283609
 2066.464, -16.069719
 2088.452, -15.875458
 2110.674, -15.730336
 2133.133, -15.579980
 2155.831, -15.359121
 2178.771, -15.100448
 2201.954, -14.911526
 2225.384, -14.785424
 2249.063, -14.660223
 2272.995, -14.504789
 2297.181, -14.312119
 2321.624, -14.141714
 2346.328, -13.981775
 2371.294, -13.854055
 2396.526, -13.705866
 2422.027, -13.562650
 2447.798, -13.419644
 2473.844, -13.268871
 2500.168, -13.137470
 2526.771, -13.035085
 2553.657, -12.965224
 2580.830, -12.840809
 2608.291, -12.711657
 2636.045, -12.626375
 2664.094, -12.547809
 2692.442, -12.465620
 2721.091, -12.366922
 2750.045, -12.314094
 2779.307, -12.253051
 2808.881, -12.191076
 2838.769, -12.138246
 2868.975, -12.115104
 2899.503, -12.109790
 2930.355, -12.110590
 2961.536, -12.145632
 2993.049, -12.218988
 3024.896, -12.324424
 3057.083, -12.426480
 3089.612, -12.522583
 3122.488, -12.651121
 3155.713, -12.760116
 3189.292, -12.876716
 3223.228, -13.012645
 3257.525, -13.178250
 3292.187, -13.362305
 3327.218, -13.529253
 3362.621, -13.763677
 3398.402, -14.049003
 3434.563, -14.337425
 3471.108, -14.656143
 3508.043, -14.953045
 3545.371, -15.312856
 3583.096, -15.613835
 3621.222, -15.899911
 3659.754, -16.188551
 3698.696, -16.471582
 3738.052, -16.780439
 3777.827, -17.054688
 3818.026, -17.333639
 3858.652, -17.629316
 3899.710, -17.884794
 3941.206, -18.148165
 3983.142, -18.399963
 4025.525, -18.688646
 4068.360, -18.946459
 4111.649, -19.159082
 4155.400, -19.365267
 4199.616, -19.557489
 4244.302, -19.733713
 4289.464, -19.839525
 4335.106, -19.889824
 4381.235, -19.918394
 4427.854, -19.897017
 4474.969, -19.810211
 4522.585, -19.635933
 4570.708, -19.446690
 4619.343, -19.245518
 4668.496, -19.034512
 4718.171, -18.793365
 4768.376, -18.534315
 4819.114, -18.333254
 4870.393, -18.089710
 4922.216, -17.902872
 4974.592, -17.681961
 5027.524, -17.563986
 5081.021, -17.478090
 5135.085, -17.460716
 5189.726, -17.555735
 5244.948, -17.642780
 5300.757, -17.854822
 5357.161, -18.045515
 5414.164, -18.342226
 5471.774, -18.617111
 5529.997, -18.931589
 5588.839, -19.244484
 5648.308, -19.514063
 5708.409, -19.818886
 5769.150, -20.047451
 5830.538, -20.321577
 5892.578, -20.576790
 5955.279, -20.851624
 6018.646, -21.111065
 6082.688, -21.297529
 6147.412, -21.539232
 6212.824, -21.698376
 6278.932, -21.916796
 6345.744, -22.044682
 6413.267, -22.139458
 6481.507, -22.191753
 6550.475, -22.233997
 6620.176, -22.256813
 6690.619, -22.236359
 6761.811, -22.195030
 6833.760, -22.105129
 6906.476, -21.961353
 6979.965, -21.781126
 7054.236, -21.508394
 7129.297, -21.209719
 7205.157, -20.844515
 7281.825, -20.499773
 7359.308, -20.064209
 7437.615, -19.650871
 7516.756, -19.145247
 7596.739, -18.518896
 7677.572, -17.800592
 7759.267, -17.019547
 7841.830, -16.215178
 7925.271, -15.327966
 8009.601, -14.446157
 8094.828, -13.592566
 8180.962, -12.688748
 8268.013, -11.778996
 8355.989, -10.895817
 8444.902, -10.138190
 8534.761, -9.524633
 8625.576, -9.086123
 8717.357, -8.861222
 8810.115, -8.817062
 8903.860, -8.997755
 8998.603, -9.413404
 9094.354, -10.094959
 9191.123, -10.918920
 9288.922, -11.848673
 9387.762, -12.766368
 9487.653, -13.725093
 9588.607, -14.643003
 9690.636, -15.586348
 9793.750, -16.435976
 9897.962, -17.147507
10003.282, -17.843580
10109.723, -18.511646
10217.297, -19.175695
10326.015, -19.789049
10435.890, -20.372545
10546.934, -20.869244
10659.160, -21.330914
10772.580, -21.712673
10887.206, -22.008785
11003.053, -22.254936
11120.132, -22.411398
11238.457, -22.477686
11358.041, -22.474958
11478.897, -22.317556
11601.040, -22.008524
11724.481, -21.533680
11849.237, -20.903330
11975.320, -20.092798
12102.745, -18.980728
12231.525, -17.659487
12361.677, -16.236904
12493.212, -15.101977
12626.147, -14.700676
12760.497, -15.203967
12896.277, -16.626305
13033.501, -18.587500
13172.186, -20.675777
13312.346, -22.551497
13453.997, -24.293694
13597.155, -25.777601
13741.838, -27.198370
13888.059, -28.453688
14035.836, -29.613607
14185.187, -30.566879
14336.125, -31.467552
14488.670, -32.248520
14642.839, -32.945293
14798.647, -33.555878
14956.113, -34.094620
15115.256, -34.476524
15276.091, -34.848934
15438.638, -35.421131
15602.915, -36.444462
15768.939, -37.677395
15936.730, -38.789375
16106.307, -39.369507
16277.688, -39.504807
16450.893, -39.282799
16625.939, -38.976948
16802.850, -38.720421
16981.643, -38.752983
17162.336, -38.878540
17344.955, -38.611088
17529.516, -37.732395
17716.039, -36.598259
17904.549, -35.822475
18095.064, -35.871483
18287.607, -36.933849
18482.199, -39.044556
18678.859, -41.572609
18877.615, -44.104374
19078.484, -46.276154
19281.490, -48.196804
19486.656, -49.682182
19694.008, -50.954853
19903.563, -51.859486
20115.350, -56.087387
20329.389, -55.826416
20545.705, -54.822235
20764.324, -53.999081
20985.270, -53.324440
21208.564, -53.167763
21434.236, -52.799416
21662.311, -52.700165
21892.811, -52.642117
22125.764, -52.660370
22361.195, -52.457802
22599.131, -52.345116
22839.600, -52.795860
23082.627, -54.024124
23328.240, -56.136932
23576.467, -59.008896
23827.334, -61.539898
