Frequency(Hz),   Magnitude(dB)
   11.804, -21.602724
   11.929, -21.631500
   12.056, -21.655636
   12.184, -21.677809
   12.314, -21.698509
   12.445, -21.717890
   12.578, -21.736088
   12.711, -21.753271
   12.847, -21.769581
   12.983, -21.785040
   13.122, -21.799465
   13.261, -21.812674
   13.402, -21.824614
   13.545, -21.835424
   13.689, -21.845270
   13.835, -21.854294
   13.982, -21.862608
   14.131, -21.870300
   14.281, -21.877262
   14.433, -21.883303
   14.587, -21.888237
   14.742, -21.892082
   14.899, -21.895004
   15.057, -21.897223
   15.217, -21.898829
   15.379, -21.899761
   15.543, -21.899933
   15.708, -21.899279
   15.875, -21.897795
   16.044, -21.895510
   16.215, -21.892458
   16.388, -21.888773
   16.562, -21.884598
   16.738, -21.879972
   16.916, -21.874737
   17.096, -21.868717
   17.278, -21.861891
   17.462, -21.854336
   17.648, -21.846165
   17.836, -21.837303
   18.025, -21.827635
   18.217, -21.817085
   18.411, -21.805754
   18.607, -21.793770
   18.805, -21.781279
   19.005, -21.768412
   19.207, -21.755217
   19.412, -21.741449
   19.618, -21.726776
   19.827, -21.711178
   20.038, -21.694925
   20.251, -21.678217
   20.467, -21.661015
   20.684, -21.643278
   20.905, -21.625023
   21.127, -21.606382
   21.352, -21.587515
   21.579, -21.568365
   21.809, -21.548746
   22.041, -21.528511
   22.275, -21.507620
   22.512, -21.486061
   22.752, -21.463936
   22.994, -21.441429
   23.239, -21.418621
   23.486, -21.394901
   23.736, -21.369261
   23.988, -21.340857
   24.244, -21.309521
   24.501, -21.275339
   24.762, -21.238316
   25.026, -21.198412
   25.292, -21.155636
   25.561, -21.110147
   25.833, -21.062138
   26.108, -21.011740
   26.386, -20.958780
   26.667, -20.903059
   26.950, -20.844740
   27.237, -20.784296
   27.527, -20.722084
   27.820, -20.658108
   28.116, -20.592279
   28.415, -20.524658
   28.717, -20.455496
   29.023, -20.385040
   29.332, -20.313585
   29.644, -20.241364
   29.959, -20.168661
   30.278, -20.095699
   30.600, -20.022539
   30.926, -19.949154
   31.255, -19.875896
   31.587, -19.803320
   31.924, -19.731884
   32.263, -19.661839
   32.607, -19.593420
   32.953, -19.526890
   33.304, -19.462603
   33.658, -19.400955
   34.017, -19.342442
   34.379, -19.287729
   34.744, -19.238815
   35.114, -19.210392
   35.488, -19.209875
   35.865, -19.237679
   36.247, -19.282148
   36.633, -19.340128
   37.022, -19.410788
   37.416, -19.493162
   37.815, -19.586250
   38.217, -19.689346
   38.624, -19.801882
   39.035, -19.923176
   39.450, -20.052183
   39.870, -20.187677
   40.294, -20.328299
   40.723, -20.472757
   41.156, -20.619740
   41.594, -20.767820
   42.036, -20.915319
   42.484, -21.060411
   42.936, -21.201204
   43.393, -21.335880
   43.854, -21.462570
   44.321, -21.579222
   44.793, -21.683495
   45.269, -21.772926
   45.751, -21.845074
   46.238, -21.897730
   46.730, -21.931034
   47.227, -21.944246
   47.730, -21.935902
   48.237, -21.903578
   48.751, -21.847471
   49.269, -21.769352
   49.794, -21.671558
   50.323, -21.556662
   50.859, -21.427197
   51.400, -21.285704
   51.947, -21.134912
   52.500, -20.977720
   53.058, -20.817192
   53.623, -20.656773
   54.194, -20.500553
   54.770, -20.352968
   55.353, -20.218102
   55.942, -20.099676
   56.537, -20.001657
   57.139, -19.928915
   57.747, -19.887186
   58.361, -19.886600
   58.982, -19.935183
   59.610, -20.034357
   60.244, -20.177839
   60.885, -20.358740
   61.533, -20.572010
   62.188, -20.812590
   62.850, -21.075541
   63.518, -21.355650
   64.194, -21.647358
   64.877, -21.944719
   65.568, -22.241318
   66.265, -22.530174
   66.970, -22.803759
   67.683, -23.054087
   68.403, -23.272924
   69.131, -23.450954
   69.867, -23.572021
   70.610, -23.622942
   71.361, -23.609610
   72.121, -23.552052
   72.888, -23.467896
   73.664, -23.362429
   74.448, -23.240160
   75.240, -23.105894
   76.040, -22.964565
   76.849, -22.821152
   77.667, -22.680937
   78.494, -22.549627
   79.329, -22.433626
   80.173, -22.339758
   81.026, -22.273870
   81.888, -22.229452
   82.759, -22.197287
   83.640, -22.170706
   84.530, -22.153547
   85.430, -22.148687
   86.339, -22.156645
   87.257, -22.177141
   88.186, -22.209915
   89.124, -22.255201
   90.072, -22.313545
   91.031, -22.385637
   91.999, -22.472427
   92.978, -22.575153
   93.968, -22.700214
   94.968, -22.857998
   95.978, -23.056400
   96.999, -23.293812
   98.032, -23.561235
   99.075, -23.848509
  100.129, -24.144876
  101.194, -24.438799
  102.271, -24.717812
  103.359, -24.968287
  104.459, -25.170063
  105.571, -25.281668
  106.694, -25.300005
  107.829, -25.249542
  108.977, -25.176006
  110.136, -25.089218
  111.308, -24.995295
  112.492, -24.900639
  113.689, -24.812080
  114.899, -24.736797
  116.122, -24.680460
  117.357, -24.638641
  118.606, -24.605766
  119.868, -24.577465
  121.144, -24.556768
  122.433, -24.544516
  123.735, -24.541059
  125.052, -24.546392
  126.383, -24.560318
  127.727, -24.582008
  129.087, -24.610388
  130.460, -24.647163
  131.848, -24.695541
  133.251, -24.758638
  134.669, -24.835997
  136.102, -24.926018
  137.550, -25.027452
  139.014, -25.140789
  140.493, -25.269835
  141.988, -25.423262
  143.499, -25.607172
  145.026, -25.819517
  146.569, -26.048664
  148.129, -26.280352
  149.705, -26.498978
  151.298, -26.687088
  152.908, -26.832874
  154.535, -26.935965
  156.179, -27.003529
  157.841, -27.042896
  159.520, -27.057653
  161.218, -27.050650
  162.933, -27.018982
  164.667, -26.946465
  166.419, -26.815844
  168.190, -26.635256
  169.979, -26.442053
  171.788, -26.282030
  173.616, -26.185944
  175.463, -26.195494
  177.330, -26.308102
  179.217, -26.491262
  181.124, -26.686806
  183.052, -26.881721
  184.999, -27.081240
  186.968, -27.285429
  188.957, -27.502121
  190.968, -27.740210
  193.000, -28.005257
  195.054, -28.280237
  197.129, -28.535839
  199.227, -28.705084
  201.347, -28.750612
  203.489, -28.681488
  205.654, -28.569952
  207.843, -28.476635
  210.054, -28.457933
  212.289, -28.544346
  214.548, -28.729376
  216.831, -28.971642
  219.138, -29.215565
  221.470, -29.401836
  223.827, -29.500372
  226.208, -29.523344
  228.615, -29.507408
  231.048, -29.483591
  233.506, -29.472860
  235.991, -29.489580
  238.502, -29.538307
  241.040, -29.615187
  243.605, -29.719667
  246.197, -29.862450
  248.816, -30.062315
  251.464, -30.318163
  254.140, -30.586861
  256.844, -30.764782
  259.577, -30.776882
  262.339, -30.634439
  265.130, -30.434763
  267.952, -30.265421
  270.803, -30.163370
  273.684, -30.125731
  276.596, -30.114740
  279.540, -30.079172
  282.514, -29.971197
  285.520, -29.782778
  288.558, -29.560755
  291.629, -29.404325
  294.732, -29.391134
  297.868, -29.519562
  301.037, -29.699640
  304.241, -29.812363
  307.478, -29.819103
  310.750, -29.741943
  314.056, -29.623564
  317.398, -29.467659
  320.775, -29.275789
  324.189, -29.082378
  327.638, -29.034569
  331.124, -29.220604
  334.648, -29.613869
  338.209, -30.021418
  341.807, -30.312227
  345.444, -30.461979
  349.120, -30.499571
  352.835, -30.404839
  356.589, -30.194847
  360.384, -29.987347
  364.218, -29.955330
  368.094, -30.138836
  372.011, -30.418863
  375.969, -30.619459
  379.970, -30.682592
  384.013, -30.640789
  388.099, -30.514767
  392.228, -30.329523
  396.402, -30.157440
  400.620, -30.068863
  404.883, -30.058790
  409.191, -30.045799
  413.545, -29.973114
  417.945, -29.857174
  422.393, -29.745049
  426.887, -29.657499
  431.429, -29.595642
  436.020, -29.559067
  440.660, -29.536808
  445.348, -29.507183
  450.087, -29.458057
  454.876, -29.424923
  459.717, -29.444027
  464.608, -29.520697
  469.552, -29.624918
  474.548, -29.730707
  479.598, -29.776299
  484.701, -29.716223
  489.858, -29.668743
  495.071, -29.819216
  500.339, -30.103683
  505.663, -30.218687
  511.043, -30.036537
  516.481, -29.769421
  521.977, -29.612110
  527.531, -29.590153
  533.144, -29.659233
  538.817, -29.739828
  544.550, -29.775833
  550.345, -29.816055
  556.201, -29.904510
  562.119, -29.907270
  568.100, -29.739271
  574.145, -29.518774
  580.255, -29.431976
  586.429, -29.529324
  592.669, -29.703890
  598.975, -29.828539
  605.349, -29.837038
  611.790, -29.765314
  618.300, -29.695513
  624.879, -29.669699
  631.528, -29.759817
  638.248, -29.971937
  645.039, -30.191265
  651.903, -30.275389
  658.839, -30.184252
  665.850, -30.053934
  672.935, -29.949205
  680.095, -29.782972
  687.332, -29.586700
  694.645, -29.486309
  702.037, -29.538580
  709.507, -29.641064
  717.057, -29.699938
  724.686, -29.721872
  732.398, -29.688543
  740.191, -29.596205
  748.067, -29.499310
  756.027, -29.451206
  764.071, -29.501959
  772.201, -29.576393
  780.418, -29.611481
  788.722, -29.564928
  797.115, -29.444286
  805.597, -29.338278
  814.169, -29.269859
  822.832, -29.165583
  831.587, -29.113047
  840.436, -29.085104
  849.379, -29.130442
  858.417, -29.097580
  867.551, -29.024632
  876.782, -28.897398
  886.111, -28.712429
  895.540, -28.536430
  905.069, -28.419193
  914.700, -28.454439
  924.433, -28.471750
  934.269, -28.476479
  944.210, -28.399652
  954.257, -28.339872
  964.411, -28.204794
  974.673, -28.083733
  985.044, -28.073864
  995.526, -27.929214
 1006.119, -27.726669
 1016.824, -27.530724
 1027.644, -27.526377
 1038.579, -27.480082
 1049.630, -27.456415
 1060.799, -27.508026
 1072.086, -27.465370
 1083.494, -27.262775
 1095.023, -27.086466
 1106.674, -26.995634
 1118.450, -26.894911
 1130.351, -26.735634
 1142.379, -26.556070
 1154.534, -26.408447
 1166.819, -26.252548
 1179.235, -26.143005
 1191.783, -26.075760
 1204.464, -26.063330
 1217.280, -26.046783
 1230.233, -25.978832
 1243.323, -25.948109
 1256.553, -25.924440
 1269.923, -25.913023
 1283.436, -25.778036
 1297.093, -25.563129
 1310.895, -25.350880
 1324.843, -25.175011
 1338.940, -25.094423
 1353.188, -25.110916
 1367.586, -25.093023
 1382.138, -25.047653
 1396.845, -24.912815
 1411.708, -24.849449
 1426.730, -24.675634
 1441.911, -24.569494
 1457.254, -24.498194
 1472.760, -24.518135
 1488.431, -24.411142
 1504.269, -24.319605
 1520.275, -24.319126
 1536.452, -24.313786
 1552.801, -24.232323
 1569.323, -24.031969
 1586.022, -23.849134
 1602.898, -23.654284
 1619.954, -23.536446
 1637.191, -23.558331
 1654.612, -23.639877
 1672.218, -23.652910
 1690.011, -23.442757
 1707.994, -23.233713
 1726.168, -23.077463
 1744.536, -23.102274
 1763.099, -23.078793
 1781.859, -22.918032
 1800.819, -22.767683
 1819.981, -22.764645
 1839.347, -22.721172
 1858.918, -22.537313
 1878.698, -22.399231
 1898.689, -22.330713
 1918.892, -22.317976
 1939.310, -22.235609
 1959.946, -22.171324
 1980.801, -22.034945
 2001.878, -21.937742
 2023.179, -21.765453
 2044.707, -21.624567
 2066.464, -21.507914
 2088.452, -21.496195
 2110.674, -21.347679
 2133.133, -21.207888
 2155.831, -21.036049
 2178.771, -20.907743
 2201.954, -20.854109
 2225.384, -20.889780
 2249.063, -20.933912
 2272.995, -20.764803
 2297.181, -20.610832
 2321.624, -20.499832
 2346.328, -20.499109
 2371.294, -20.458412
 2396.526, -20.307552
 2422.027, -20.178576
 2447.798, -20.075575
 2473.844, -20.000467
 2500.168, -20.006319
 2526.771, -19.962509
 2553.657, -19.916748
 2580.830, -19.705910
 2608.291, -19.619616
 2636.045, -19.537615
 2664.094, -19.422571
 2692.442, -19.316530
 2721.091, -19.215467
 2750.045, -19.138474
 2779.307, -18.982960
 2808.881, -18.922787
 2838.769, -18.911346
 2868.975, -18.978163
 2899.503, -18.948339
 2930.355, -18.916277
 2961.536, -18.883780
 2993.049, -19.073332
 3024.896, -19.222616
 3057.083, -19.282408
 3089.612, -19.250574
 3122.488, -19.365389
 3155.713, -19.500925
 3189.292, -19.530052
 3223.228, -19.608706
 3257.525, -19.677902
 3292.187, -19.838697
 3327.218, -19.899988
 3362.621, -20.083752
 3398.402, -20.266825
 3434.563, -20.605822
 3471.108, -20.742550
 3508.043, -20.933985
 3545.371, -21.121449
 3583.096, -21.400606
 3621.222, -21.614174
 3659.754, -21.612526
 3698.696, -21.767069
 3738.052, -21.801811
 3777.827, -21.925026
 3818.026, -22.054585
 3858.652, -22.257956
 3899.710, -22.492224
 3941.206, -22.653418
 3983.142, -22.824507
 4025.525, -23.045469
 4068.360, -23.233892
 4111.649, -23.429016
 4155.400, -23.595757
 4199.616, -23.717245
 4244.302, -23.790205
 4289.464, -23.905287
 4335.106, -24.009611
 4381.235, -24.146652
 4427.854, -24.066032
 4474.969, -23.998138
 4522.585, -23.888395
 4570.708, -23.823740
 4619.343, -23.815325
 4668.496, -23.759310
 4718.171, -23.568708
 4768.376, -23.346804
 4819.114, -23.131123
 4870.393, -22.997833
 4922.216, -22.826340
 4974.592, -22.653198
 5027.524, -22.512850
 5081.021, -22.284437
 5135.085, -22.041338
 5189.726, -21.844418
 5244.948, -21.708580
 5300.757, -21.625259
 5357.161, -21.525177
 5414.164, -21.300848
 5471.774, -21.143490
 5529.997, -20.871058
 5588.839, -20.727304
 5648.308, -20.439632
 5708.409, -20.299833
 5769.150, -20.262590
 5830.538, -20.215614
 5892.578, -19.968262
 5955.279, -19.593346
 6018.646, -19.420687
 6082.688, -19.438627
 6147.412, -19.482052
 6212.824, -19.505955
 6278.932, -19.619823
 6345.744, -19.788795
 6413.267, -19.985184
 6481.507, -20.135813
 6550.475, -20.518976
 6620.176, -20.762787
 6690.619, -21.079962
 6761.811, -21.201359
 6833.760, -21.394823
 6906.476, -21.524151
 6979.965, -21.611629
 7054.236, -21.787764
 7129.297, -21.805107
 7205.157, -21.804750
 7281.825, -21.677361
 7359.308, -21.591194
 7437.615, -21.546490
 7516.756, -21.240059
 7596.739, -20.955162
 7677.572, -20.498346
 7759.267, -19.987486
 7841.830, -19.375969
 7925.271, -18.734184
 8009.601, -18.064636
 8094.828, -17.387941
 8180.962, -16.921137
 8268.013, -16.579678
 8355.989, -16.448996
 8444.902, -16.548580
 8534.761, -16.982967
 8625.576, -17.747831
 8717.357, -18.730358
 8810.115, -20.048475
 8903.860, -21.302538
 8998.603, -22.650976
 9094.354, -23.699085
 9191.123, -24.920765
 9288.922, -26.075472
 9387.762, -27.150846
 9487.653, -28.185513
 9588.607, -29.197838
 9690.636, -30.204611
 9793.750, -31.132135
 9897.962, -32.035851
10003.282, -32.704426
10109.723, -33.187405
10217.297, -33.632549
10326.015, -33.959229
10435.890, -34.366333
10546.934, -34.613892
10659.160, -35.030197
10772.580, -35.346527
10887.206, -35.820461
11003.053, -36.186058
11120.132, -36.503384
11238.457, -36.611149
11358.041, -36.817905
11478.897, -37.053982
11601.040, -37.276546
11724.481, -37.323734
11849.237, -37.359150
11975.320, -37.446781
12102.745, -37.467339
12231.525, -37.534241
12361.677, -37.525349
12493.212, -37.426872
12626.147, -37.054543
12760.497, -36.685062
12896.277, -36.527466
13033.501, -36.429676
13172.186, -36.341671
13312.346, -36.209221
13453.997, -35.861401
13597.155, -35.136658
13741.838, -34.342373
13888.059, -33.591541
14035.836, -32.853737
14185.187, -31.813761
14336.125, -30.157185
14488.670, -28.671200
14642.839, -27.162050
14798.647, -26.464899
14956.113, -26.221739
15115.256, -26.735401
15276.091, -27.743958
15438.638, -29.429317
15602.915, -31.886297
15768.939, -34.332882
15936.730, -36.555550
16106.307, -38.041435
16277.688, -39.241848
16450.893, -40.072548
16625.939, -40.448132
16802.850, -40.851780
16981.643, -41.088207
17162.336, -41.056007
17344.955, -40.446404
17529.516, -39.828598
17716.039, -38.614799
17904.549, -37.820530
18095.064, -37.433765
18287.607, -37.960575
18482.199, -38.969109
18678.859, -40.501793
18877.615, -42.358418
19078.484, -44.045845
19281.490, -46.066822
19486.656, -47.746738
19694.008, -50.075478
19903.563, -51.399044
20115.350, -55.989258
20329.389, -57.291061
20545.705, -58.800209
20764.324, -60.075188
20985.270, -60.629215
21208.564, -60.920448
21434.236, -62.091770
21662.311, -63.444710
21892.811, -63.869038
22125.764, -62.928665
22361.195, -61.451797
22599.131, -61.163818
22839.600, -61.715019
23082.627, -63.402176
23328.240, -65.747559
23576.467, -67.300613
23827.334, -68.694397
