Frequency(Hz),   Magnitude(dB)
   11.804, -24.410360
   11.929, -24.381611
   12.056, -24.305553
   12.184, -24.221783
   12.314, -24.136139
   12.445, -24.048775
   12.578, -23.959885
   12.711, -23.869627
   12.847, -23.778181
   12.983, -23.685579
   13.122, -23.591686
   13.261, -23.496338
   13.402, -23.399511
   13.545, -23.301374
   13.689, -23.202120
   13.835, -23.101919
   13.982, -23.000933
   14.131, -22.899277
   14.281, -22.796881
   14.433, -22.693592
   14.587, -22.589264
   14.742, -22.483952
   14.899, -22.377878
   15.057, -22.271301
   15.217, -22.164370
   15.379, -22.057051
   15.543, -21.949333
   15.708, -21.841181
   15.875, -21.732676
   16.044, -21.623884
   16.215, -21.514908
   16.388, -21.405947
   16.562, -21.297220
   16.738, -21.188807
   16.916, -21.080650
   17.096, -20.972635
   17.278, -20.864824
   17.462, -20.757372
   17.648, -20.650467
   17.836, -20.544140
   18.025, -20.438351
   18.217, -20.333120
   18.411, -20.228653
   18.607, -20.125183
   18.805, -20.022942
   19.005, -19.922184
   19.207, -19.823072
   19.412, -19.725477
   19.618, -19.629189
   19.827, -19.534311
   20.038, -19.441250
   20.251, -19.350346
   20.467, -19.261694
   20.684, -19.175407
   20.905, -19.091644
   21.127, -19.010700
   21.352, -18.932896
   21.579, -18.858347
   21.809, -18.787048
   22.041, -18.719025
   22.275, -18.654436
   22.512, -18.593462
   22.752, -18.536404
   22.994, -18.483656
   23.239, -18.435480
   23.486, -18.391218
   23.736, -18.349585
   23.988, -18.309422
   24.244, -18.270456
   24.501, -18.232775
   24.762, -18.196390
   25.026, -18.161274
   25.292, -18.127415
   25.561, -18.094963
   25.833, -18.064129
   26.108, -18.034998
   26.386, -18.007378
   26.667, -17.981039
   26.950, -17.956108
   27.237, -17.933001
   27.527, -17.912035
   27.820, -17.893139
   28.116, -17.876158
   28.415, -17.861074
   28.717, -17.848036
   29.023, -17.837204
   29.332, -17.828749
   29.644, -17.822807
   29.959, -17.819494
   30.278, -17.818916
   30.600, -17.820953
   30.926, -17.825426
   31.255, -17.832487
   31.587, -17.842489
   31.924, -17.855692
   32.263, -17.872097
   32.607, -17.891693
   32.953, -17.914474
   33.304, -17.940519
   33.658, -17.969910
   34.017, -18.002825
   34.379, -18.039570
   34.744, -18.080912
   35.114, -18.131500
   35.488, -18.191990
   35.865, -18.260258
   36.247, -18.330496
   36.633, -18.401617
   37.022, -18.473526
   37.416, -18.546001
   37.815, -18.618805
   38.217, -18.692080
   38.624, -18.766172
   39.035, -18.841375
   39.450, -18.917711
   39.870, -18.995070
   40.294, -19.073339
   40.723, -19.152510
   41.156, -19.232649
   41.594, -19.313820
   42.036, -19.395954
   42.484, -19.478886
   42.936, -19.562525
   43.393, -19.646971
   43.854, -19.732367
   44.321, -19.818796
   44.793, -19.906218
   45.269, -19.994572
   45.751, -20.083981
   46.238, -20.174660
   46.730, -20.266405
   47.227, -20.358925
   47.730, -20.452166
   48.237, -20.546442
   48.751, -20.641769
   49.269, -20.738058
   49.794, -20.835463
   50.323, -20.934208
   50.859, -21.034340
   51.400, -21.135719
   51.947, -21.238186
   52.500, -21.341566
   53.058, -21.445673
   53.623, -21.550451
   54.194, -21.656282
   54.770, -21.763681
   55.353, -21.872564
   55.942, -21.982220
   56.537, -22.091959
   57.139, -22.201693
   57.747, -22.311550
   58.361, -22.421638
   58.982, -22.531876
   59.610, -22.642132
   60.244, -22.752369
   60.885, -22.862421
   61.533, -22.971693
   62.188, -23.079674
   62.850, -23.186317
   63.518, -23.291676
   64.194, -23.395834
   64.877, -23.498865
   65.568, -23.600828
   66.265, -23.701668
   66.970, -23.801235
   67.683, -23.899452
   68.403, -23.996477
   69.131, -24.091967
   69.867, -24.177958
   70.610, -24.237108
   71.361, -24.260368
   72.121, -24.250866
   72.888, -24.219954
   73.664, -24.171850
   74.448, -24.110264
   75.240, -24.039207
   76.040, -23.962767
   76.849, -23.884985
   77.667, -23.810163
   78.494, -23.742998
   79.329, -23.688795
   80.173, -23.653225
   81.026, -23.642107
   81.888, -23.661051
   82.759, -23.712046
   83.640, -23.793402
   84.530, -23.900660
   85.430, -24.029667
   86.339, -24.175631
   87.257, -24.332779
   88.186, -24.494957
   89.124, -24.656143
   90.072, -24.810188
   91.031, -24.950640
   91.999, -25.070808
   92.978, -25.162500
   93.968, -25.217915
   94.968, -25.238398
   95.978, -25.232084
   96.999, -25.208961
   98.032, -25.173574
   99.075, -25.130314
  100.129, -25.084026
  101.194, -25.039843
  102.271, -25.003160
  103.359, -24.979683
  104.459, -24.974684
  105.571, -24.989195
  106.694, -25.021294
  107.829, -25.067324
  108.977, -25.125032
  110.136, -25.191442
  111.308, -25.262838
  112.492, -25.335114
  113.689, -25.403912
  114.899, -25.464689
  116.122, -25.513390
  117.357, -25.550488
  118.606, -25.578362
  119.868, -25.599737
  121.144, -25.614517
  122.433, -25.622740
  123.735, -25.624271
  125.052, -25.618608
  126.383, -25.605030
  127.727, -25.581993
  129.087, -25.544960
  130.460, -25.490555
  131.848, -25.419123
  133.251, -25.336164
  134.669, -25.247221
  136.102, -25.157351
  137.550, -25.072399
  139.014, -25.000217
  140.493, -24.949486
  141.988, -24.924662
  143.499, -24.924446
  145.026, -24.941908
  146.569, -24.968943
  148.129, -24.996210
  149.705, -25.013659
  151.298, -25.011673
  152.908, -24.981897
  154.535, -24.919706
  156.179, -24.827101
  157.841, -24.715178
  159.520, -24.600912
  161.218, -24.502642
  162.933, -24.440447
  164.667, -24.426313
  166.419, -24.449234
  168.190, -24.496918
  169.979, -24.566595
  171.788, -24.670044
  173.616, -24.801504
  175.463, -24.949041
  177.330, -25.100464
  179.217, -25.242760
  181.124, -25.362839
  183.052, -25.456923
  184.999, -25.528782
  186.968, -25.572058
  188.957, -25.577444
  190.968, -25.544909
  193.000, -25.490599
  195.054, -25.434902
  197.129, -25.396534
  199.227, -25.391228
  201.347, -25.426170
  203.489, -25.495214
  205.654, -25.581232
  207.843, -25.663696
  210.054, -25.722357
  212.289, -25.747658
  214.548, -25.743879
  216.831, -25.725487
  219.138, -25.706062
  221.470, -25.696268
  223.827, -25.702965
  226.208, -25.729036
  228.615, -25.768270
  231.048, -25.814157
  233.506, -25.876421
  235.991, -25.988289
  238.502, -26.167631
  241.040, -26.391472
  243.605, -26.596270
  246.197, -26.693609
  248.816, -26.653749
  251.464, -26.511229
  254.140, -26.355284
  256.844, -26.243679
  259.577, -26.191797
  262.339, -26.187532
  265.130, -26.209003
  267.952, -26.251492
  270.803, -26.314875
  273.684, -26.396235
  276.596, -26.486830
  279.540, -26.573341
  282.514, -26.646936
  285.520, -26.703201
  288.558, -26.737688
  291.629, -26.717262
  294.732, -26.594046
  297.868, -26.366409
  301.037, -26.102619
  304.241, -25.897825
  307.478, -25.774141
  310.750, -25.705050
  314.056, -25.640457
  317.398, -25.561552
  320.775, -25.465698
  324.189, -25.364355
  327.638, -25.278446
  331.124, -25.220989
  334.648, -25.194532
  338.209, -25.193518
  341.807, -25.221695
  345.444, -25.272608
  349.120, -25.314463
  352.835, -25.307440
  356.589, -25.248262
  360.384, -25.163967
  364.218, -25.078945
  368.094, -24.997511
  372.011, -24.926090
  375.969, -24.893026
  379.970, -24.905529
  384.013, -24.929682
  388.099, -24.894144
  392.228, -24.787741
  396.402, -24.686831
  400.620, -24.681662
  404.883, -24.767815
  409.191, -24.838861
  413.545, -24.806517
  417.945, -24.706493
  422.393, -24.644264
  426.887, -24.657633
  431.429, -24.703255
  436.020, -24.718235
  440.660, -24.707153
  445.348, -24.753889
  450.087, -24.901077
  454.876, -25.009106
  459.717, -24.833221
  464.608, -24.451384
  469.552, -24.210089
  474.548, -24.239107
  479.598, -24.347240
  484.701, -24.307249
  489.858, -24.165623
  495.071, -24.062017
  500.339, -24.039402
  505.663, -24.066372
  511.043, -24.119093
  516.481, -24.180803
  521.977, -24.241636
  527.531, -24.285358
  533.144, -24.306488
  538.817, -24.307985
  544.550, -24.299959
  550.345, -24.245710
  556.201, -24.138700
  562.119, -24.078918
  568.100, -24.126221
  574.145, -24.263237
  580.255, -24.390587
  586.429, -24.487762
  592.669, -24.558435
  598.975, -24.600697
  605.349, -24.603931
  611.790, -24.551529
  618.300, -24.509871
  624.879, -24.552912
  631.528, -24.574633
  638.248, -24.467920
  645.039, -24.312674
  651.903, -24.241463
  658.839, -24.234726
  665.850, -24.209398
  672.935, -24.192493
  680.095, -24.212122
  687.332, -24.259428
  694.645, -24.332939
  702.037, -24.403168
  709.507, -24.442146
  717.057, -24.437124
  724.686, -24.437115
  732.398, -24.454311
  740.191, -24.448233
  748.067, -24.436567
  756.027, -24.443605
  764.071, -24.472481
  772.201, -24.407497
  780.418, -24.311007
  788.722, -24.337610
  797.115, -24.316446
  805.597, -24.226517
  814.169, -24.055826
  822.832, -23.982239
  831.587, -23.920738
  840.436, -23.897926
  849.379, -23.975384
  858.417, -24.093184
  867.551, -24.067089
  876.782, -23.954580
  886.111, -23.893761
  895.540, -23.984591
  905.069, -24.062160
  914.700, -24.045155
  924.433, -23.947042
  934.269, -23.840696
  944.210, -23.731140
  954.257, -23.627720
  964.411, -23.515863
  974.673, -23.366154
  985.044, -23.304548
  995.526, -23.341192
 1006.119, -23.327971
 1016.824, -23.178917
 1027.644, -22.994478
 1038.579, -22.931503
 1049.630, -22.979811
 1060.799, -23.066936
 1072.086, -23.086823
 1083.494, -22.979729
 1095.023, -22.827623
 1106.674, -22.723459
 1118.450, -22.653130
 1130.351, -22.540268
 1142.379, -22.365301
 1154.534, -22.228655
 1166.819, -22.149765
 1179.235, -22.056053
 1191.783, -21.974455
 1204.464, -21.880943
 1217.280, -21.847536
 1230.233, -21.752329
 1243.323, -21.655659
 1256.553, -21.603638
 1269.923, -21.567177
 1283.436, -21.526651
 1297.093, -21.417574
 1310.895, -21.313976
 1324.843, -21.208298
 1338.940, -21.143303
 1353.188, -21.088451
 1367.586, -21.023476
 1382.138, -20.994041
 1396.845, -20.904018
 1411.708, -20.805107
 1426.730, -20.700939
 1441.911, -20.679724
 1457.254, -20.633448
 1472.760, -20.520056
 1488.431, -20.441339
 1504.269, -20.393175
 1520.275, -20.377781
 1536.452, -20.313875
 1552.801, -20.234444
 1569.323, -20.149799
 1586.022, -20.086689
 1602.898, -19.973587
 1619.954, -19.893829
 1637.191, -19.819975
 1654.612, -19.811676
 1672.218, -19.724459
 1690.011, -19.660913
 1707.994, -19.609598
 1726.168, -19.556927
 1744.536, -19.455700
 1763.099, -19.355934
 1781.859, -19.282368
 1800.819, -19.239574
 1819.981, -19.209166
 1839.347, -19.077393
 1858.918, -18.842550
 1878.698, -18.597322
 1898.689, -18.270931
 1918.892, -17.959465
 1939.310, -17.640368
 1959.946, -17.424343
 1980.801, -17.328228
 2001.878, -17.276983
 2023.179, -17.204058
 2044.707, -16.979429
 2066.464, -16.815626
 2088.452, -16.694435
 2110.674, -16.584457
 2133.133, -16.425011
 2155.831, -16.263605
 2178.771, -16.118057
 2201.954, -15.957811
 2225.384, -15.808517
 2249.063, -15.630177
 2272.995, -15.457834
 2297.181, -15.283245
 2321.624, -15.139486
 2346.328, -14.983019
 2371.294, -14.825182
 2396.526, -14.647123
 2422.027, -14.464473
 2447.798, -14.291102
 2473.844, -14.135160
 2500.168, -14.011894
 2526.771, -13.871285
 2553.657, -13.742497
 2580.830, -13.611578
 2608.291, -13.473728
 2636.045, -13.343882
 2664.094, -13.240109
 2692.442, -13.139172
 2721.091, -13.019894
 2750.045, -12.910369
 2779.307, -12.844815
 2808.881, -12.778940
 2838.769, -12.698863
 2868.975, -12.633912
 2899.503, -12.650609
 2930.355, -12.685856
 2961.536, -12.714098
 2993.049, -12.733686
 3024.896, -12.779098
 3057.083, -12.839889
 3089.612, -12.921791
 3122.488, -13.024446
 3155.713, -13.119937
 3189.292, -13.255067
 3223.228, -13.438613
 3257.525, -13.637988
 3292.187, -13.784735
 3327.218, -13.952465
 3362.621, -14.165946
 3398.402, -14.423129
 3434.563, -14.711351
 3471.108, -15.005569
 3508.043, -15.306171
 3545.371, -15.606311
 3583.096, -15.899156
 3621.222, -16.132921
 3659.754, -16.377092
 3698.696, -16.617104
 3738.052, -16.883760
 3777.827, -17.081104
 3818.026, -17.297991
 3858.652, -17.495363
 3899.710, -17.684408
 3941.206, -17.848043
 3983.142, -18.052540
 4025.525, -18.251844
 4068.360, -18.394529
 4111.649, -18.542189
 4155.400, -18.695187
 4199.616, -18.829016
 4244.302, -18.888424
 4289.464, -18.925180
 4335.106, -18.932821
 4381.235, -18.885279
 4427.854, -18.802742
 4474.969, -18.682997
 4522.585, -18.527134
 4570.708, -18.364985
 4619.343, -18.186272
 4668.496, -18.028786
 4718.171, -17.839491
 4768.376, -17.713459
 4819.114, -17.583551
 4870.393, -17.496019
 4922.216, -17.416203
 4974.592, -17.402067
 5027.524, -17.458948
 5081.021, -17.575546
 5135.085, -17.759111
 5189.726, -18.039162
 5244.948, -18.379179
 5300.757, -18.806761
 5357.161, -19.272856
 5414.164, -19.782913
 5471.774, -20.265289
 5529.997, -20.749283
 5588.839, -21.244244
 5648.308, -21.794975
 5708.409, -22.321833
 5769.150, -22.884985
 5830.538, -23.417032
 5892.578, -23.972988
 5955.279, -24.492828
 6018.646, -25.040012
 6082.688, -25.541819
 6147.412, -26.061546
 6212.824, -26.507755
 6278.932, -26.972662
 6345.744, -27.350842
 6413.267, -27.765593
 6481.507, -28.044062
 6550.475, -28.319126
 6620.176, -28.452330
 6690.619, -28.575813
 6761.811, -28.479887
 6833.760, -28.289631
 6906.476, -27.931164
 6979.965, -27.470423
 7054.236, -26.843143
 7129.297, -26.076929
 7205.157, -25.258606
 7281.825, -24.293137
 7359.308, -23.321188
 7437.615, -22.256052
 7516.756, -21.175209
 7596.739, -19.899530
 7677.572, -18.630480
 7759.267, -17.222536
 7841.830, -15.795351
 7925.271, -14.273364
 8009.601, -12.787946
 8094.828, -11.362427
 8180.962, -9.920041
 8268.013, -8.602745
 8355.989, -7.441312
 8444.902, -6.654251
 8534.761, -6.304800
 8625.576, -6.436315
 8717.357, -6.979432
 8810.115, -7.774392
 8903.860, -8.687496
 8998.603, -9.606457
 9094.354, -10.482571
 9191.123, -11.290833
 9288.922, -12.066673
 9387.762, -12.810304
 9487.653, -13.565534
 9588.607, -14.185469
 9690.636, -14.793863
 9793.750, -15.291263
 9897.962, -15.802311
10003.282, -16.306610
10109.723, -16.760920
10217.297, -17.137255
10326.015, -17.523167
10435.890, -17.925570
10546.934, -18.304699
10659.160, -18.640560
10772.580, -18.900736
10887.206, -19.157986
11003.053, -19.334204
11120.132, -19.460825
11238.457, -19.482319
11358.041, -19.402735
11478.897, -19.193424
11601.040, -18.780499
11724.481, -18.280087
11849.237, -17.567587
11975.320, -16.646439
12102.745, -15.396439
12231.525, -14.074139
12361.677, -13.026113
12493.212, -12.665883
12626.147, -13.226439
12760.497, -14.729304
12896.277, -16.926235
13033.501, -19.238125
13172.186, -21.324610
13312.346, -23.233994
13453.997, -24.982676
13597.155, -26.499590
13741.838, -28.019169
13888.059, -29.448370
14035.836, -30.771492
14185.187, -31.898371
14336.125, -32.862682
14488.670, -33.705505
14642.839, -34.533932
14798.647, -35.218597
14956.113, -35.858269
15115.256, -36.371162
15276.091, -36.887318
15438.638, -37.519566
15602.915, -38.436676
15768.939, -39.502140
15936.730, -40.371063
16106.307, -40.748890
16277.688, -40.597733
16450.893, -40.069714
16625.939, -39.269363
16802.850, -38.379795
16981.643, -37.764488
17162.336, -37.274406
17344.955, -36.652901
17529.516, -36.239677
17716.039, -36.578117
17904.549, -38.065357
18095.064, -40.407829
18287.607, -43.208817
18482.199, -45.695068
18678.859, -47.968246
18877.615, -49.702488
19078.484, -51.262421
19281.490, -52.458225
19486.656, -53.522381
19694.008, -54.429165
19903.563, -54.906124
20115.350, -58.012810
20329.389, -57.448875
20545.705, -56.417542
20764.324, -55.430267
20985.270, -54.614189
21208.564, -54.546452
21434.236, -54.267998
21662.311, -53.942825
21892.811, -53.330986
22125.764, -52.723854
22361.195, -52.196663
22599.131, -52.097008
22839.600, -52.900230
23082.627, -54.631729
23328.240, -57.453575
23576.467, -60.765030
23827.334, -63.295944
