Frequency(Hz),Magnitude(dB)
11.804,-16.197214
11.929,-16.206353
12.056,-16.196762
12.184,-16.183447
12.314,-16.168634
12.445,-16.152474
12.578,-16.135141
12.711,-16.116797
12.847,-16.097601
12.983,-16.077588
13.122,-16.056596
13.261,-16.034448
13.402,-16.011109
13.545,-15.986735
13.689,-15.961508
13.835,-15.93558
13.982,-15.909084
14.131,-15.882134
14.281,-15.854636
14.433,-15.826419
14.587,-15.797318
14.742,-15.767357
14.899,-15.736748
15.057,-15.705718
15.217,-15.674395
15.379,-15.642732
15.543,-15.610667
15.708,-15.578161
15.875,-15.545253
16.044,-15.511975
16.215,-15.478409
16.388,-15.444713
16.562,-15.411071
16.738,-15.377544
16.916,-15.34402
17.096,-15.310351
17.278,-15.276546
17.462,-15.242739
17.648,-15.209061
17.836,-15.175499
18.025,-15.14197
18.217,-15.108446
18.411,-15.075072
18.607,-15.042029
18.805,-15.009499
19.005,-14.977671
19.207,-14.946657
19.412,-14.916254
19.618,-14.886188
19.827,-14.856502
20.038,-14.827525
20.251,-14.799517
20.467,-14.772517
20.684,-14.746532
20.905,-14.72166
21.127,-14.698112
21.352,-14.676102
21.579,-14.655664
21.809,-14.636695
22.041,-14.619122
22.275,-14.602997
22.512,-14.588403
22.752,-14.575515
22.994,-14.564615
23.239,-14.555918
23.486,-14.549108
23.736,-14.543576
23.988,-14.538813
24.244,-14.534705
24.501,-14.53131
24.762,-14.528582
25.026,-14.526412
25.292,-14.52473
25.561,-14.523614
25.833,-14.523182
26.108,-14.523445
26.386,-14.524131
26.667,-14.524918
26.95,-14.525834
27.237,-14.527207
27.527,-14.529247
27.82,-14.531771
28.116,-14.534524
28.415,-14.537367
28.717,-14.540324
29.023,-14.543434
29.332,-14.546732
29.644,-14.550211
29.959,-14.553858
30.278,-14.557616
30.6,-14.561208
30.926,-14.564295
31.255,-14.566851
31.587,-14.569061
31.924,-14.570989
32.263,-14.572449
32.607,-14.573221
32.953,-14.573102
33.304,-14.57194
33.658,-14.569586
34.017,-14.565985
34.379,-14.5612
34.744,-14.555478
35.114,-14.550631
35.488,-14.547268
35.865,-14.545116
36.247,-14.542508
36.633,-14.53919
37.022,-14.535154
37.416,-14.530201
37.815,-14.524153
38.217,-14.517205
38.624,-14.50975
39.035,-14.502158
39.45,-14.494511
39.87,-14.486764
40.294,-14.478873
40.723,-14.470925
41.156,-14.46308
41.594,-14.45549
42.036,-14.448169
42.484,-14.441081
42.936,-14.434239
43.393,-14.42786
43.854,-14.422226
44.321,-14.417558
44.793,-14.413953
45.269,-14.411509
45.751,-14.410502
46.238,-14.411651
46.73,-14.418529
47.227,-14.433089
47.73,-14.454777
48.237,-14.47998
48.751,-14.50684
49.269,-14.535014
49.794,-14.564588
50.323,-14.595676
50.859,-14.628196
51.4,-14.661889
51.947,-14.69647
52.5,-14.731627
53.058,-14.76702
53.623,-14.802435
54.194,-14.838103
54.77,-14.874332
55.353,-14.910864
55.942,-14.946779
56.537,-14.981179
57.139,-15.013756
57.747,-15.044415
58.361,-15.07334
58.982,-15.101155
59.61,-15.128624
60.244,-15.156315
60.885,-15.184216
61.533,-15.211878
62.188,-15.238919
62.85,-15.26544
63.518,-15.291654
64.194,-15.317794
64.877,-15.344114
65.568,-15.370867
66.265,-15.398168
66.97,-15.426081
67.683,-15.454729
68.403,-15.4845
69.131,-15.515863
69.867,-15.548826
70.61,-15.582733
71.361,-15.61717
72.121,-15.652286
72.888,-15.688498
73.664,-15.725831
74.448,-15.764302
75.24,-15.803946
76.04,-15.844622
76.849,-15.885889
77.667,-15.927251
78.494,-15.968323
79.329,-16.009018
80.173,-16.049296
81.026,-16.088811
81.888,-16.12571
82.759,-16.158775
83.64,-16.188027
84.53,-16.215359
85.43,-16.242053
86.339,-16.268527
87.257,-16.294545
88.186,-16.319889
89.124,-16.344876
90.072,-16.370155
91.031,-16.396503
91.999,-16.425051
92.978,-16.456941
93.968,-16.492421
94.968,-16.531014
95.978,-16.572084
96.999,-16.61523
98.032,-16.659907
99.075,-16.705682
100.129,-16.752239
101.194,-16.799234
102.271,-16.846234
103.359,-16.892762
104.459,-16.938221
105.571,-16.982637
106.694,-17.02705
107.829,-17.072923
108.977,-17.120938
110.136,-17.170678
111.308,-17.221129
112.492,-17.271087
113.689,-17.319298
114.899,-17.364474
116.122,-17.405118
117.357,-17.439519
118.606,-17.467365
119.868,-17.489705
121.144,-17.50867
122.433,-17.525755
123.735,-17.542231
125.052,-17.559067
126.383,-17.577142
127.727,-17.597232
129.087,-17.620866
130.46,-17.649621
131.848,-17.684675
133.251,-17.725732
134.669,-17.771022
136.102,-17.817782
137.55,-17.863526
139.014,-17.90734
140.493,-17.95055
141.988,-17.996074
143.499,-18.046641
145.026,-18.102296
146.569,-18.16074
148.129,-18.218571
149.705,-18.271607
151.298,-18.31204
152.908,-18.328602
154.535,-18.317567
156.179,-18.283666
157.841,-18.238858
159.52,-18.192663
161.218,-18.154062
162.933,-18.126563
164.667,-18.104771
166.419,-18.079183
168.19,-18.053614
169.979,-18.043928
171.788,-18.066864
173.616,-18.120601
175.463,-18.199142
177.33,-18.292326
179.217,-18.38553
181.124,-18.460336
183.052,-18.509915
184.999,-18.53666
186.968,-18.543825
188.957,-18.536234
190.968,-18.520593
193.0,-18.503272
195.054,-18.488326
197.129,-18.479206
199.227,-18.476688
201.347,-18.481506
203.489,-18.492358
205.654,-18.507012
207.843,-18.522211
210.054,-18.537005
212.289,-18.551056
214.548,-18.564558
216.831,-18.577931
219.138,-18.593828
221.47,-18.619907
223.827,-18.666711
226.208,-18.738224
228.615,-18.822568
231.048,-18.900577
233.506,-18.961052
235.991,-19.008238
238.502,-19.051294
241.04,-19.09472
243.605,-19.138966
246.197,-19.182822
248.816,-19.226819
251.464,-19.270796
254.14,-19.314482
256.844,-19.357942
259.577,-19.40361
262.339,-19.4536
265.13,-19.507055
267.952,-19.557596
270.803,-19.599919
273.684,-19.634282
276.596,-19.665579
279.54,-19.697537
282.514,-19.729835
285.52,-19.761826
288.558,-19.79321
291.629,-19.82159
294.732,-19.840288
297.868,-19.847654
301.037,-19.850951
304.241,-19.862855
307.478,-19.888349
310.75,-19.924022
314.056,-19.960586
317.398,-19.989744
320.775,-20.009725
324.189,-20.024213
327.638,-20.030714
331.124,-20.023742
334.648,-20.006411
338.209,-19.992835
341.807,-19.990366
345.444,-19.998012
349.12,-20.010106
352.835,-20.022699
356.589,-20.034346
360.384,-20.046765
364.218,-20.061611
368.094,-20.078866
372.011,-20.098226
375.969,-20.119592
379.97,-20.142928
384.013,-20.165217
388.099,-20.177911
392.228,-20.180392
396.402,-20.181025
400.62,-20.186131
404.883,-20.194222
409.191,-20.197608
413.545,-20.189765
417.945,-20.176978
422.393,-20.173499
426.887,-20.184619
431.429,-20.198003
436.02,-20.195483
440.66,-20.175753
445.348,-20.155272
450.087,-20.144899
454.876,-20.147848
459.717,-20.162662
464.608,-20.182333
469.552,-20.184319
474.548,-20.159084
479.598,-20.129614
484.701,-20.119745
489.858,-20.136098
495.071,-20.169208
500.339,-20.212244
505.663,-20.254453
511.043,-20.293223
516.481,-20.340005
521.977,-20.397242
527.531,-20.449348
533.144,-20.485518
538.817,-20.527906
544.55,-20.591762
550.345,-20.658468
556.201,-20.703819
562.119,-20.736423
568.1,-20.781497
574.145,-20.864258
580.255,-20.980854
586.429,-21.103945
592.669,-21.198921
598.975,-21.244453
605.349,-21.26469
611.79,-21.288007
618.3,-21.335469
624.879,-21.399094
631.528,-21.449811
638.248,-21.481798
645.039,-21.492649
651.903,-21.512562
658.839,-21.565855
665.85,-21.625036
672.935,-21.656737
680.095,-21.679177
687.332,-21.723087
694.645,-21.783181
702.037,-21.843514
709.507,-21.902472
717.057,-21.929009
724.686,-21.942012
732.398,-21.980306
740.191,-22.065218
748.067,-22.130092
756.027,-22.153765
764.071,-22.157008
772.201,-22.168741
780.418,-22.184507
788.722,-22.182915
797.115,-22.159546
805.597,-22.130796
814.169,-22.112225
822.832,-22.101667
831.587,-22.107479
840.436,-22.116603
849.379,-22.12932
858.417,-22.158926
867.551,-22.186593
876.782,-22.183476
886.111,-22.144241
895.54,-22.124111
905.069,-22.123424
914.7,-22.128083
924.433,-22.115744
934.269,-22.097282
944.21,-22.065828
954.257,-22.028822
964.411,-21.984051
974.673,-21.922964
985.044,-21.855519
995.526,-21.799036
1006.119,-21.74644
1016.824,-21.699553
1027.644,-21.638435
1038.579,-21.586873
1049.63,-21.543982
1060.799,-21.521597
1072.086,-21.499155
1083.494,-21.453809
1095.023,-21.38979
1106.674,-21.328609
1118.45,-21.273706
1130.351,-21.211683
1142.379,-21.141159
1154.534,-21.058606
1166.819,-20.986958
1179.235,-20.923806
1191.783,-20.872573
1204.464,-20.822602
1217.28,-20.778252
1230.233,-20.747818
1243.323,-20.702852
1256.553,-20.656059
1269.923,-20.592226
1283.436,-20.51932
1297.093,-20.439294
1310.895,-20.380795
1324.843,-20.340467
1338.94,-20.303529
1353.188,-20.260234
1367.586,-20.219427
1382.138,-20.173558
1396.845,-20.130025
1411.708,-20.082736
1426.73,-20.038415
1441.911,-19.984723
1457.254,-19.913276
1472.76,-19.827053
1488.431,-19.758445
1504.269,-19.716033
1520.275,-19.681165
1536.452,-19.623548
1552.801,-19.56465
1569.323,-19.504439
1586.022,-19.428412
1602.898,-19.348321
1619.954,-19.270444
1637.191,-19.200854
1654.612,-19.120081
1672.218,-19.042695
1690.011,-18.975774
1707.994,-18.915945
1726.168,-18.863814
1744.536,-18.800163
1763.099,-18.704396
1781.859,-18.608606
1800.819,-18.511137
1819.981,-18.382377
1839.347,-18.199936
1858.918,-17.969817
1878.698,-17.680224
1898.689,-17.366059
1918.892,-17.061837
1939.31,-16.830128
1959.946,-16.636921
1980.801,-16.464848
2001.878,-16.315262
2023.179,-16.188703
2044.707,-16.085131
2066.464,-15.968055
2088.452,-15.856558
2110.674,-15.735965
2133.133,-15.62205
2155.831,-15.505743
2178.771,-15.402637
2201.954,-15.315619
2225.384,-15.224932
2249.063,-15.13287
2272.995,-15.025923
2297.181,-14.927426
2321.624,-14.82951
2346.328,-14.728104
2371.294,-14.616091
2396.526,-14.497222
2422.027,-14.387935
2447.798,-14.284317
2473.844,-14.185814
2500.168,-14.084763
2526.771,-14.001356
2553.657,-13.926026
2580.83,-13.854402
2608.291,-13.774714
2636.045,-13.699246
2664.094,-13.631839
2692.442,-13.568202
2721.091,-13.501119
2750.045,-13.43762
2779.307,-13.384573
2808.881,-13.343602
2838.769,-13.296684
2868.975,-13.267013
2899.503,-13.256757
2930.355,-13.284834
2961.536,-13.327983
2993.049,-13.401979
3024.896,-13.480182
3057.083,-13.563593
3089.612,-13.641739
3122.488,-13.745781
3155.713,-13.870527
3189.292,-14.0157
3223.228,-14.191812
3257.525,-14.385257
3292.187,-14.599943
3327.218,-14.828629
3362.621,-15.087864
3398.402,-15.389562
3434.563,-15.717542
3471.108,-16.055227
3508.043,-16.413042
3545.371,-16.774902
3583.096,-17.156776
3621.222,-17.501424
3659.754,-17.857743
3698.696,-18.193612
3738.052,-18.544212
3777.827,-18.869881
3818.026,-19.226798
3858.652,-19.541795
3899.71,-19.89363
3941.206,-20.220648
3983.142,-20.561181
4025.525,-20.880216
4068.36,-21.215307
4111.649,-21.55474
4155.4,-21.873753
4199.616,-22.159448
4244.302,-22.411842
4289.464,-22.614825
4335.106,-22.763815
4381.235,-22.859508
4427.854,-22.912308
4474.969,-22.907102
4522.585,-22.850452
4570.708,-22.743158
4619.343,-22.58092
4668.496,-22.372855
4718.171,-22.13198
4768.376,-21.855152
4819.114,-21.570361
4870.393,-21.268571
4922.216,-20.991912
4974.592,-20.721904
5027.524,-20.510087
5081.021,-20.325673
5135.085,-20.222245
5189.726,-20.161021
5244.948,-20.170359
5300.757,-20.223404
5357.161,-20.349613
5414.164,-20.500751
5471.774,-20.670357
5529.997,-20.847628
5588.839,-21.037902
5648.308,-21.221077
5708.409,-21.388672
5769.15,-21.564936
5830.538,-21.732374
5892.578,-21.905286
5955.279,-22.054166
6018.646,-22.203097
6082.688,-22.355864
6147.412,-22.50642
6212.824,-22.638215
6278.932,-22.746473
6345.744,-22.826016
6413.267,-22.870344
6481.507,-22.880843
6550.475,-22.875313
6620.176,-22.838425
6690.619,-22.768392
6761.811,-22.669999
6833.76,-22.552586
6906.476,-22.394317
6979.965,-22.144743
7054.236,-21.835947
7129.297,-21.445286
7205.157,-21.050294
7281.825,-20.628508
7359.308,-20.189773
7437.615,-19.703092
7516.756,-19.115742
7596.739,-18.427582
7677.572,-17.645953
7759.267,-16.793133
7841.83,-15.880826
7925.271,-14.896816
8009.601,-13.90084
8094.828,-12.902935
8180.962,-11.891721
8268.013,-10.934253
8355.989,-10.083333
8444.902,-9.514218
8534.761,-9.294692
8625.576,-9.503913
8717.357,-10.070538
8810.115,-10.90469
8903.86,-11.857316
8998.603,-12.826146
9094.354,-13.755484
9191.123,-14.60419
9288.922,-15.393297
9387.762,-16.103957
9487.653,-16.770087
9588.607,-17.369891
9690.636,-17.918407
9793.75,-18.399512
9897.962,-18.818642
10003.282,-19.202305
10109.723,-19.546264
10217.297,-19.842532
10326.015,-20.093288
10435.89,-20.319077
10546.934,-20.514034
10659.16,-20.668638
10772.58,-20.757417
10887.206,-20.796837
11003.053,-20.752895
11120.132,-20.627878
11238.457,-20.407652
11358.041,-20.115916
11478.897,-19.686078
11601.04,-19.122721
11724.481,-18.385004
11849.237,-17.471665
11975.32,-16.341692
12102.745,-14.940164
12231.525,-13.378076
12361.677,-11.967618
12493.212,-11.165343
12626.147,-11.22891
12760.497,-12.193614
12896.277,-13.831025
13033.501,-15.694769
13172.186,-17.426195
13312.346,-18.946414
13453.997,-20.271627
13597.155,-21.434016
13741.838,-22.510693
13888.059,-23.488925
14035.836,-24.351693
14185.187,-25.072077
14336.125,-25.662325
14488.67,-26.178604
14642.839,-26.655075
14798.647,-27.110242
14956.113,-27.503099
15115.256,-27.836146
15276.091,-28.197795
15438.638,-28.764216
15602.915,-29.653649
15768.939,-30.772033
15936.73,-31.808227
16106.307,-32.406538
16277.688,-32.498677
16450.893,-32.162476
16625.939,-31.601875
16802.85,-31.059668
16981.643,-30.808595
17162.336,-30.528436
17344.955,-30.029817
17529.516,-29.624838
17716.039,-30.03577
17904.549,-31.519015
18095.064,-33.999222
18287.607,-36.933131
18482.199,-39.755569
18678.859,-42.250668
18877.615,-44.278738
19078.484,-45.993416
19281.49,-47.579692
19486.656,-48.988296
19694.008,-50.093104
19903.563,-50.758831
20115.35,-54.38375
20329.389,-54.075748
20545.705,-53.360763
20764.324,-52.624186
20985.27,-52.052852
21208.564,-51.695819
21434.236,-51.297052
21662.311,-50.952708
21892.811,-50.607081
22125.764,-50.368868
22361.195,-50.230749
22599.131,-50.29515
22839.6,-51.036036
23082.627,-52.674585
23328.24,-55.6845
23576.467,-59.457812
23827.334,-62.488651
