Frequency(Hz),   Magnitude(dB)
   11.804, -23.920000
   11.929, -23.864557
   12.056, -23.742228
   12.184, -23.609056
   12.314, -23.473221
   12.445, -23.334892
   12.578, -23.194275
   12.711, -23.051546
   12.847, -22.906904
   12.983, -22.760391
   13.122, -22.611891
   13.261, -22.461258
   13.402, -22.308489
   13.545, -22.153790
   13.689, -21.997362
   13.835, -21.839417
   13.982, -21.680141
   14.131, -21.519672
   14.281, -21.357996
   14.433, -21.194979
   14.587, -21.030531
   14.742, -20.864727
   14.899, -20.697847
   15.057, -20.530197
   15.217, -20.361973
   15.379, -20.193209
   15.543, -20.023922
   15.708, -19.854181
   15.875, -19.684097
   16.044, -19.513803
   16.215, -19.343496
   16.388, -19.173433
   16.562, -19.003920
   16.738, -18.835129
   16.916, -18.667082
   17.096, -18.499758
   17.278, -18.333315
   17.462, -18.168022
   17.648, -18.004173
   17.836, -17.841904
   18.025, -17.681326
   18.217, -17.522556
   18.411, -17.365942
   18.607, -17.211851
   18.805, -17.060677
   19.005, -16.912827
   19.207, -16.768606
   19.412, -16.628067
   19.618, -16.491171
   19.827, -16.358223
   20.038, -16.229799
   20.251, -16.106451
   20.467, -15.988493
   20.684, -15.876247
   20.905, -15.770112
   21.127, -15.670628
   21.352, -15.578366
   21.579, -15.493697
   21.809, -15.416887
   22.041, -15.348272
   22.275, -15.288289
   22.512, -15.237445
   22.752, -15.196360
   22.994, -15.165747
   23.239, -15.146096
   23.486, -15.135509
   23.736, -15.130457
   23.988, -15.127584
   24.244, -15.125724
   24.501, -15.124835
   24.762, -15.124871
   25.026, -15.125710
   25.292, -15.127260
   25.561, -15.129599
   25.833, -15.132811
   26.108, -15.136906
   26.386, -15.141576
   26.667, -15.146509
   26.950, -15.151687
   27.237, -15.157427
   27.527, -15.163899
   27.820, -15.170913
   28.116, -15.178185
   28.415, -15.185541
   28.717, -15.192969
   29.023, -15.200485
   29.332, -15.208090
   29.644, -15.215730
   29.959, -15.223364
   30.278, -15.230882
   30.600, -15.237974
   30.926, -15.244249
   31.255, -15.249632
   31.587, -15.254254
   31.924, -15.258122
   32.263, -15.261013
   32.607, -15.262623
   32.953, -15.262697
   33.304, -15.261018
   33.658, -15.257354
   34.017, -15.251598
   34.379, -15.243712
   34.744, -15.233880
   35.114, -15.223910
   35.488, -15.214485
   35.865, -15.205409
   36.247, -15.195024
   36.633, -15.183109
   37.022, -15.169656
   37.416, -15.154497
   37.815, -15.137474
   38.217, -15.118814
   38.624, -15.098932
   39.035, -15.078224
   39.450, -15.056819
   39.870, -15.034709
   40.294, -15.011870
   40.723, -14.988452
   41.156, -14.964661
   41.594, -14.940690
   42.036, -14.916613
   42.484, -14.892447
   42.936, -14.868273
   43.393, -14.844373
   43.854, -14.821096
   44.321, -14.798751
   44.793, -14.777501
   45.269, -14.757537
   45.751, -14.739238
   46.238, -14.723152
   46.730, -14.710126
   47.227, -14.700089
   47.730, -14.692326
   48.237, -14.685760
   48.751, -14.679933
   49.269, -14.674748
   49.794, -14.670453
   50.323, -14.667356
   50.859, -14.665551
   51.400, -14.664990
   51.947, -14.665606
   52.500, -14.667315
   53.058, -14.670009
   53.623, -14.673735
   54.194, -14.679021
   54.770, -14.686437
   55.353, -14.696041
   55.942, -14.707249
   56.537, -14.719484
   57.139, -14.732821
   57.747, -14.747598
   58.361, -14.765180
   58.982, -14.786962
   59.610, -14.813457
   60.244, -14.844016
   60.885, -14.877715
   61.533, -14.913688
   62.188, -14.951183
   62.850, -14.989878
   63.518, -15.029537
   64.194, -15.069914
   64.877, -15.110765
   65.568, -15.151797
   66.265, -15.192548
   66.970, -15.232461
   67.683, -15.271008
   68.403, -15.307895
   69.131, -15.342892
   69.867, -15.375782
   70.610, -15.406351
   71.361, -15.434493
   72.121, -15.460374
   72.888, -15.484249
   73.664, -15.506576
   74.448, -15.527891
   75.240, -15.548779
   76.040, -15.569670
   76.849, -15.590765
   77.667, -15.612235
   78.494, -15.634401
   79.329, -15.657933
   80.173, -15.683607
   81.026, -15.711943
   81.888, -15.742121
   82.759, -15.773860
   83.640, -15.807485
   84.530, -15.844410
   85.430, -15.884974
   86.339, -15.928579
   87.257, -15.973882
   88.186, -16.019491
   89.124, -16.064491
   90.072, -16.108196
   91.031, -16.149952
   91.999, -16.189306
   92.978, -16.224207
   93.968, -16.248283
   94.968, -16.258553
   95.978, -16.256006
   96.999, -16.245863
   98.032, -16.230131
   99.075, -16.210732
  100.129, -16.189878
  101.194, -16.169899
  102.271, -16.153215
  103.359, -16.142412
  104.459, -16.140331
  105.571, -16.149473
  106.694, -16.167791
  107.829, -16.191525
  108.977, -16.217037
  110.136, -16.244356
  111.308, -16.273428
  112.492, -16.304056
  113.689, -16.336071
  114.899, -16.369316
  116.122, -16.403482
  117.357, -16.437853
  118.606, -16.472775
  119.868, -16.508989
  121.144, -16.547478
  122.433, -16.587944
  123.735, -16.629692
  125.052, -16.671618
  126.383, -16.712360
  127.727, -16.749748
  129.087, -16.780025
  130.460, -16.801943
  131.848, -16.817019
  133.251, -16.829323
  134.669, -16.840773
  136.102, -16.852421
  137.550, -16.865860
  139.014, -16.884897
  140.493, -16.918747
  141.988, -16.969339
  143.499, -17.033640
  145.026, -17.102791
  146.569, -17.174696
  148.129, -17.247940
  149.705, -17.320940
  151.298, -17.392263
  152.908, -17.460592
  154.535, -17.524534
  156.179, -17.583134
  157.841, -17.638638
  159.520, -17.695805
  161.218, -17.759115
  162.933, -17.826944
  164.667, -17.893988
  166.419, -17.956390
  168.190, -18.024092
  169.979, -18.113195
  171.788, -18.235298
  173.616, -18.382208
  175.463, -18.536049
  177.330, -18.678383
  179.217, -18.794262
  181.124, -18.876156
  183.052, -18.929298
  184.999, -18.968103
  186.968, -19.010149
  188.957, -19.064631
  190.968, -19.132755
  193.000, -19.207954
  195.054, -19.286621
  197.129, -19.367290
  199.227, -19.451153
  201.347, -19.539635
  203.489, -19.632339
  205.654, -19.724909
  207.843, -19.813992
  210.054, -19.892288
  212.289, -19.949308
  214.548, -19.981283
  216.831, -19.996374
  219.138, -20.011196
  221.470, -20.044336
  223.827, -20.109980
  226.208, -20.209303
  228.615, -20.324144
  231.048, -20.431696
  233.506, -20.520443
  235.991, -20.594097
  238.502, -20.661802
  241.040, -20.728888
  243.605, -20.800982
  246.197, -20.885094
  248.816, -20.988390
  251.464, -21.109045
  254.140, -21.233528
  256.844, -21.330111
  259.577, -21.373053
  262.339, -21.362865
  265.130, -21.331179
  267.952, -21.314796
  270.803, -21.333357
  273.684, -21.386765
  276.596, -21.455978
  279.540, -21.512831
  282.514, -21.533764
  285.520, -21.516014
  288.558, -21.480959
  291.629, -21.463194
  294.732, -21.490181
  297.868, -21.562485
  301.037, -21.647758
  304.241, -21.682947
  307.478, -21.629969
  310.750, -21.507900
  314.056, -21.392906
  317.398, -21.347551
  320.775, -21.378641
  324.189, -21.443428
  327.638, -21.488087
  331.124, -21.492018
  334.648, -21.469042
  338.209, -21.453970
  341.807, -21.469006
  345.444, -21.512079
  349.120, -21.562155
  352.835, -21.603674
  356.589, -21.629898
  360.384, -21.634047
  364.218, -21.591616
  368.094, -21.499710
  372.011, -21.387434
  375.969, -21.297541
  379.970, -21.247244
  384.013, -21.236788
  388.099, -21.273243
  392.228, -21.348524
  396.402, -21.425446
  400.620, -21.462334
  404.883, -21.459223
  409.191, -21.455759
  413.545, -21.474817
  417.945, -21.513258
  422.393, -21.555637
  426.887, -21.596720
  431.429, -21.615105
  436.020, -21.567619
  440.660, -21.470831
  445.348, -21.426405
  450.087, -21.496012
  454.876, -21.608093
  459.717, -21.647062
  464.608, -21.604446
  469.552, -21.552275
  474.548, -21.523062
  479.598, -21.501324
  484.701, -21.468399
  489.858, -21.419127
  495.071, -21.354059
  500.339, -21.302156
  505.663, -21.322880
  511.043, -21.416399
  516.481, -21.527452
  521.977, -21.592958
  527.531, -21.620440
  533.144, -21.635942
  538.817, -21.662722
  544.550, -21.715883
  550.345, -21.801491
  556.201, -21.904194
  562.119, -21.981531
  568.100, -22.006250
  574.145, -21.974018
  580.255, -21.924490
  586.429, -21.910877
  592.669, -21.941582
  598.975, -21.985741
  605.349, -22.019579
  611.790, -22.082972
  618.300, -22.166807
  624.879, -22.223696
  631.528, -22.228289
  638.248, -22.222466
  645.039, -22.229649
  651.903, -22.246262
  658.839, -22.266981
  665.850, -22.247385
  672.935, -22.161224
  680.095, -22.063303
  687.332, -22.030739
  694.645, -22.091356
  702.037, -22.146164
  709.507, -22.151211
  717.057, -22.122566
  724.686, -22.145826
  732.398, -22.220091
  740.191, -22.270594
  748.067, -22.286556
  756.027, -22.285870
  764.071, -22.292133
  772.201, -22.295843
  780.418, -22.280300
  788.722, -22.224316
  797.115, -22.147514
  805.597, -22.068419
  814.169, -22.015774
  822.832, -21.981230
  831.587, -21.968605
  840.436, -21.952126
  849.379, -21.914932
  858.417, -21.912283
  867.551, -21.900808
  876.782, -21.891850
  886.111, -21.843695
  895.540, -21.800972
  905.069, -21.773733
  914.700, -21.758463
  924.433, -21.766104
  934.269, -21.736452
  944.210, -21.717285
  954.257, -21.695642
  964.411, -21.606770
  974.673, -21.452787
  985.044, -21.322441
  995.526, -21.286453
 1006.119, -21.284428
 1016.824, -21.237579
 1027.644, -21.163471
 1038.579, -21.087231
 1049.630, -21.015575
 1060.799, -20.938755
 1072.086, -20.867594
 1083.494, -20.781929
 1095.023, -20.672272
 1106.674, -20.580219
 1118.450, -20.529593
 1130.351, -20.487455
 1142.379, -20.370605
 1154.534, -20.231031
 1166.819, -20.090916
 1179.235, -20.012157
 1191.783, -19.922501
 1204.464, -19.842722
 1217.280, -19.779818
 1230.233, -19.703550
 1243.323, -19.621490
 1256.553, -19.514948
 1269.923, -19.412664
 1283.436, -19.327517
 1297.093, -19.277109
 1310.895, -19.214243
 1324.843, -19.114782
 1338.940, -18.992729
 1353.188, -18.920311
 1367.586, -18.878872
 1382.138, -18.828562
 1396.845, -18.767292
 1411.708, -18.718954
 1426.730, -18.712137
 1441.911, -18.639223
 1457.254, -18.565434
 1472.760, -18.481462
 1488.431, -18.409269
 1504.269, -18.321632
 1520.275, -18.265497
 1536.452, -18.230221
 1552.801, -18.141214
 1569.323, -18.058744
 1586.022, -18.018713
 1602.898, -18.000311
 1619.954, -17.942965
 1637.191, -17.834206
 1654.612, -17.735146
 1672.218, -17.663960
 1690.011, -17.638256
 1707.994, -17.600941
 1726.168, -17.556471
 1744.536, -17.482443
 1763.099, -17.393816
 1781.859, -17.326000
 1800.819, -17.241407
 1819.981, -17.181721
 1839.347, -17.074839
 1858.918, -17.041737
 1878.698, -16.956306
 1898.689, -16.883221
 1918.892, -16.734289
 1939.310, -16.512762
 1959.946, -16.203783
 1980.801, -15.897441
 2001.878, -15.631762
 2023.179, -15.400631
 2044.707, -15.171693
 2066.464, -14.990447
 2088.452, -14.811234
 2110.674, -14.638684
 2133.133, -14.514487
 2155.831, -14.425245
 2178.771, -14.290664
 2201.954, -14.134939
 2225.384, -13.957196
 2249.063, -13.793161
 2272.995, -13.590073
 2297.181, -13.428797
 2321.624, -13.280022
 2346.328, -13.128723
 2371.294, -12.952957
 2396.526, -12.797949
 2422.027, -12.634896
 2447.798, -12.466743
 2473.844, -12.293091
 2500.168, -12.155005
 2526.771, -12.012469
 2553.657, -11.879590
 2580.830, -11.732649
 2608.291, -11.586559
 2636.045, -11.429132
 2664.094, -11.302825
 2692.442, -11.212397
 2721.091, -11.093538
 2750.045, -10.971606
 2779.307, -10.835614
 2808.881, -10.760851
 2838.769, -10.705283
 2868.975, -10.695931
 2899.503, -10.618005
 2930.355, -10.561956
 2961.536, -10.554502
 2993.049, -10.596979
 3024.896, -10.607800
 3057.083, -10.649413
 3089.612, -10.781145
 3122.488, -10.946085
 3155.713, -11.088916
 3189.292, -11.223645
 3223.228, -11.414668
 3257.525, -11.614558
 3292.187, -11.790745
 3327.218, -11.967163
 3362.621, -12.179938
 3398.402, -12.433803
 3434.563, -12.726536
 3471.108, -13.025904
 3508.043, -13.361763
 3545.371, -13.630050
 3583.096, -13.933204
 3621.222, -14.219804
 3659.754, -14.549737
 3698.696, -14.858203
 3738.052, -15.165335
 3777.827, -15.459524
 3818.026, -15.764463
 3858.652, -16.045788
 3899.710, -16.324202
 3941.206, -16.603708
 3983.142, -16.893024
 4025.525, -17.157360
 4068.360, -17.432930
 4111.649, -17.696718
 4155.400, -17.960562
 4199.616, -18.211302
 4244.302, -18.454664
 4289.464, -18.621893
 4335.106, -18.742735
 4381.235, -18.816004
 4427.854, -18.890261
 4474.969, -18.881628
 4522.585, -18.845108
 4570.708, -18.764107
 4619.343, -18.678053
 4668.496, -18.511488
 4718.171, -18.392317
 4768.376, -18.230637
 4819.114, -18.075533
 4870.393, -17.891394
 4922.216, -17.717258
 4974.592, -17.584791
 5027.524, -17.488464
 5081.021, -17.469250
 5135.085, -17.465828
 5189.726, -17.542336
 5244.948, -17.681128
 5300.757, -17.918461
 5357.161, -18.128151
 5414.164, -18.359697
 5471.774, -18.625942
 5529.997, -18.957052
 5588.839, -19.347519
 5648.308, -19.672077
 5708.409, -20.023458
 5769.150, -20.321842
 5830.538, -20.655611
 5892.578, -20.967224
 5955.279, -21.334078
 6018.646, -21.699244
 6082.688, -22.065552
 6147.412, -22.401173
 6212.824, -22.766272
 6278.932, -23.127581
 6345.744, -23.446575
 6413.267, -23.712334
 6481.507, -23.987741
 6550.475, -24.171177
 6620.176, -24.382572
 6690.619, -24.473593
 6761.811, -24.629827
 6833.760, -24.612139
 6906.476, -24.598816
 6979.965, -24.366804
 7054.236, -24.039103
 7129.297, -23.549244
 7205.157, -22.964275
 7281.825, -22.286520
 7359.308, -21.565998
 7437.615, -20.819876
 7516.756, -19.903122
 7596.739, -18.909597
 7677.572, -17.755264
 7759.267, -16.574963
 7841.830, -15.345465
 7925.271, -14.053809
 8009.601, -12.776835
 8094.828, -11.518734
 8180.962, -10.226695
 8268.013, -8.901865
 8355.989, -7.582313
 8444.902, -6.374209
 8534.761, -5.348784
 8625.576, -4.639163
 8717.357, -4.401932
 8810.115, -4.646030
 8903.860, -5.367336
 8998.603, -6.378093
 9094.354, -7.575199
 9191.123, -8.753373
 9288.922, -9.881681
 9387.762, -10.942714
 9487.653, -11.911519
 9588.607, -12.786209
 9690.636, -13.541422
 9793.750, -14.223090
 9897.962, -14.783958
10003.282, -15.265988
10109.723, -15.657031
10217.297, -16.003660
10326.015, -16.309378
10435.890, -16.557419
10546.934, -16.755646
10659.160, -16.877903
10772.580, -16.979206
10887.206, -16.992764
11003.053, -17.001717
11120.132, -16.924776
11238.457, -16.822683
11358.041, -16.606152
11478.897, -16.322607
11601.040, -15.923452
11724.481, -15.413037
11849.237, -14.708920
11975.320, -13.801246
12102.745, -12.629190
12231.525, -11.257137
12361.677, -9.940461
12493.212, -9.064485
12626.147, -9.019228
12760.497, -9.873433
12896.277, -11.589551
13033.501, -13.690058
13172.186, -15.778574
13312.346, -17.580803
13453.997, -19.203371
13597.155, -20.645088
13741.838, -22.002390
13888.059, -23.251671
14035.836, -24.369257
14185.187, -25.290800
14336.125, -26.082525
14488.670, -26.820757
14642.839, -27.504839
14798.647, -28.132160
14956.113, -28.667131
15115.256, -29.180336
15276.091, -29.695385
15438.638, -30.407644
15602.915, -31.436697
15768.939, -32.702831
15936.730, -33.909466
16106.307, -34.686852
16277.688, -35.025539
16450.893, -34.918282
16625.939, -34.632549
16802.850, -34.340931
16981.643, -34.359596
17162.336, -34.554058
17344.955, -34.428501
17529.516, -33.664124
17716.039, -32.760345
17904.549, -32.312191
18095.064, -32.667404
18287.607, -33.909729
18482.199, -36.140846
18678.859, -38.900024
18877.615, -41.818905
19078.484, -43.970467
19281.490, -46.090389
19486.656, -48.092304
19694.008, -49.634472
19903.563, -50.396694
20115.350, -53.857327
20329.389, -53.383827
20545.705, -52.562149
20764.324, -51.720142
20985.270, -51.217022
21208.564, -50.872375
21434.236, -50.643940
21662.311, -50.495777
21892.811, -50.473320
22125.764, -50.217972
22361.195, -50.117676
22599.131, -49.817398
22839.600, -50.187054
23082.627, -51.160515
23328.240, -53.841354
23576.467, -57.572243
23827.334, -61.034374
