Frequency(Hz),   Magnitude(dB)
   11.804, -5.569466
   11.929, -5.709975
   12.056, -5.933637
   12.184, -6.168667
   12.314, -6.404301
   12.445, -6.640651
   12.578, -6.877812
   12.711, -7.115925
   12.847, -7.355060
   12.983, -7.595206
   13.122, -7.836119
   13.261, -8.077551
   13.402, -8.319385
   13.545, -8.561698
   13.689, -8.804575
   13.835, -9.048069
   13.982, -9.292227
   14.131, -9.537040
   14.281, -9.782289
   14.433, -10.027711
   14.587, -10.272979
   14.742, -10.518008
   14.899, -10.762849
   15.057, -11.007577
   15.217, -11.252162
   15.379, -11.496386
   15.543, -11.740011
   15.708, -11.982812
   15.875, -12.224619
   16.044, -12.465263
   16.215, -12.704607
   16.388, -12.942584
   16.562, -13.179125
   16.738, -13.414054
   16.916, -13.646978
   17.096, -13.877480
   17.278, -14.105266
   17.462, -14.330170
   17.648, -14.551996
   17.836, -14.770405
   18.025, -14.984964
   18.217, -15.195267
   18.411, -15.401076
   18.607, -15.602163
   18.805, -15.798307
   19.005, -15.989241
   19.207, -16.174629
   19.412, -16.353781
   19.618, -16.525923
   19.827, -16.690569
   20.038, -16.847513
   20.251, -16.996420
   20.467, -17.136765
   20.684, -17.267925
   20.905, -17.389336
   21.127, -17.500547
   21.352, -17.601070
   21.579, -17.690191
   21.809, -17.767056
   22.041, -17.830782
   22.275, -17.880606
   22.512, -17.915733
   22.752, -17.935455
   22.994, -17.939098
   23.239, -17.926304
   23.486, -17.899494
   23.736, -17.863220
   23.988, -17.821999
   24.244, -17.777636
   24.501, -17.730370
   24.762, -17.680185
   25.026, -17.627045
   25.292, -17.570955
   25.561, -17.512077
   25.833, -17.450602
   26.108, -17.386642
   26.386, -17.320036
   26.667, -17.250563
   26.950, -17.178396
   27.237, -17.104000
   27.527, -17.027731
   27.820, -16.949574
   28.116, -16.869440
   28.415, -16.787390
   28.717, -16.703655
   29.023, -16.618494
   29.332, -16.532171
   29.644, -16.444939
   29.959, -16.357044
   30.278, -16.268719
   30.600, -16.180004
   30.926, -16.090883
   31.255, -16.001671
   31.587, -15.912919
   31.924, -15.825101
   32.263, -15.738422
   32.607, -15.653114
   32.953, -15.569447
   33.304, -15.487735
   33.658, -15.408378
   34.017, -15.331841
   34.379, -15.258790
   34.744, -15.189334
   35.114, -15.118062
   35.488, -15.042023
   35.865, -14.960925
   36.247, -14.879282
   36.633, -14.798235
   37.022, -14.717862
   37.416, -14.637959
   37.815, -14.558308
   38.217, -14.479098
   38.624, -14.400709
   39.035, -14.323467
   39.450, -14.247436
   39.870, -14.172540
   40.294, -14.098689
   40.723, -14.025928
   41.156, -13.954367
   41.594, -13.884114
   42.036, -13.815128
   42.484, -13.747313
   42.936, -13.680595
   43.393, -13.615125
   43.854, -13.551117
   44.321, -13.488688
   44.793, -13.427852
   45.269, -13.368606
   45.751, -13.311110
   46.238, -13.257183
   46.730, -13.223386
   47.227, -13.219128
   47.730, -13.241844
   48.237, -13.274036
   48.751, -13.307452
   49.269, -13.341321
   49.794, -13.375802
   50.323, -13.411100
   50.859, -13.447204
   51.400, -13.483951
   51.947, -13.521168
   52.500, -13.558640
   53.058, -13.596143
   53.623, -13.633591
   54.194, -13.671350
   54.770, -13.709855
   55.353, -13.749004
   55.942, -13.788031
   56.537, -13.826216
   57.139, -13.863413
   57.747, -13.899734
   58.361, -13.935540
   58.982, -13.971370
   59.610, -14.007679
   60.244, -14.044713
   60.885, -14.082332
   61.533, -14.120030
   62.188, -14.157393
   62.850, -14.194475
   63.518, -14.231436
   64.194, -14.268465
   64.877, -14.305740
   65.568, -14.343482
   66.265, -14.381724
   66.970, -14.420465
   67.683, -14.459764
   68.403, -14.499932
   69.131, -14.541357
   69.867, -14.584099
   70.610, -14.627562
   71.361, -14.671258
   72.121, -14.715163
   72.888, -14.759571
   73.664, -14.804605
   74.448, -14.850382
   75.240, -14.897038
   76.040, -14.944574
   76.849, -14.992668
   77.667, -15.040956
   78.494, -15.089205
   79.329, -15.137494
   80.173, -15.185942
   81.026, -15.234352
   81.888, -15.280733
   82.759, -15.323735
   83.640, -15.363254
   84.530, -15.401142
   85.430, -15.438339
   86.339, -15.474831
   87.257, -15.509891
   88.186, -15.542796
   89.124, -15.573340
   90.072, -15.601595
   91.031, -15.627729
   91.999, -15.652263
   92.978, -15.675950
   93.968, -15.698272
   94.968, -15.716857
   95.978, -15.729491
   96.999, -15.735715
   98.032, -15.736901
   99.075, -15.734818
  100.129, -15.731532
  101.194, -15.729217
  102.271, -15.730119
  103.359, -15.736682
  104.459, -15.752195
  105.571, -15.784140
  106.694, -15.835770
  107.829, -15.906405
  108.977, -15.989816
  110.136, -16.082499
  111.308, -16.180607
  112.492, -16.279900
  113.689, -16.375877
  114.899, -16.463816
  116.122, -16.538942
  117.357, -16.598089
  118.606, -16.640488
  119.868, -16.668234
  121.144, -16.685017
  122.433, -16.695461
  123.735, -16.704298
  125.052, -16.716173
  126.383, -16.735888
  127.727, -16.768164
  129.087, -16.817266
  130.460, -16.885351
  131.848, -16.971666
  133.251, -17.072548
  134.669, -17.182207
  136.102, -17.293581
  137.550, -17.399603
  139.014, -17.494820
  140.493, -17.578985
  141.988, -17.653696
  143.499, -17.721210
  145.026, -17.780472
  146.569, -17.831205
  148.129, -17.872902
  149.705, -17.904751
  151.298, -17.923546
  152.908, -17.915476
  154.535, -17.867094
  156.179, -17.775137
  157.841, -17.656137
  159.520, -17.533575
  161.218, -17.432386
  162.933, -17.378183
  164.667, -17.394424
  166.419, -17.483530
  168.190, -17.638187
  169.979, -17.841637
  171.788, -18.078781
  173.616, -18.314163
  175.463, -18.509384
  177.330, -18.643879
  179.217, -18.715975
  181.124, -18.736214
  183.052, -18.723772
  184.999, -18.706425
  186.968, -18.706938
  188.957, -18.739389
  190.968, -18.805902
  193.000, -18.897982
  195.054, -18.997028
  197.129, -19.079662
  199.227, -19.117662
  201.347, -19.096453
  203.489, -19.022722
  205.654, -18.925329
  207.843, -18.839575
  210.054, -18.805920
  212.289, -18.848749
  214.548, -18.964256
  216.831, -19.120329
  219.138, -19.276876
  221.470, -19.396286
  223.827, -19.467632
  226.208, -19.505558
  228.615, -19.528971
  231.048, -19.539152
  233.506, -19.535917
  235.991, -19.528404
  238.502, -19.524813
  241.040, -19.524645
  243.605, -19.526348
  246.197, -19.528969
  248.816, -19.534294
  251.464, -19.543827
  254.140, -19.559496
  256.844, -19.589045
  259.577, -19.638662
  262.339, -19.707325
  265.130, -19.784414
  267.952, -19.861406
  270.803, -19.936186
  273.684, -20.008076
  276.596, -20.075535
  279.540, -20.121887
  282.514, -20.103186
  285.520, -20.001560
  288.558, -19.855478
  291.629, -19.764395
  294.732, -19.790943
  297.868, -19.929651
  301.037, -20.107622
  304.241, -20.240171
  307.478, -20.302244
  310.750, -20.316990
  314.056, -20.328568
  317.398, -20.352974
  320.775, -20.390844
  324.189, -20.433687
  327.638, -20.475418
  331.124, -20.513481
  334.648, -20.546333
  338.209, -20.560730
  341.807, -20.544647
  345.444, -20.499945
  349.120, -20.441950
  352.835, -20.381836
  356.589, -20.321362
  360.384, -20.273516
  364.218, -20.283766
  368.094, -20.365458
  372.011, -20.482950
  375.969, -20.562582
  379.970, -20.587988
  384.013, -20.596300
  388.099, -20.631268
  392.228, -20.699854
  396.402, -20.766676
  400.620, -20.791672
  404.883, -20.775457
  409.191, -20.759882
  413.545, -20.778187
  417.945, -20.816875
  422.393, -20.829567
  426.887, -20.797522
  431.429, -20.751162
  436.020, -20.730618
  440.660, -20.736626
  445.348, -20.742907
  450.087, -20.731995
  454.876, -20.703171
  459.717, -20.658379
  464.608, -20.613522
  469.552, -20.616863
  474.548, -20.679480
  479.598, -20.749018
  484.701, -20.764759
  489.858, -20.723974
  495.071, -20.661129
  500.339, -20.616188
  505.663, -20.668144
  511.043, -20.802452
  516.481, -20.899248
  521.977, -20.880831
  527.531, -20.857014
  533.144, -20.918417
  538.817, -20.986547
  544.550, -20.974306
  550.345, -20.931644
  556.201, -20.934879
  562.119, -20.985561
  568.100, -21.034056
  574.145, -21.013058
  580.255, -20.923342
  586.429, -20.882387
  592.669, -20.934788
  598.975, -20.962667
  605.349, -20.891811
  611.790, -20.815920
  618.300, -20.826818
  624.879, -20.873579
  631.528, -20.871305
  638.248, -20.811285
  645.039, -20.759417
  651.903, -20.774075
  658.839, -20.860493
  665.850, -20.931009
  672.935, -20.941580
  680.095, -20.883846
  687.332, -20.823244
  694.645, -20.821587
  702.037, -20.853611
  709.507, -20.881937
  717.057, -20.882914
  724.686, -20.874741
  732.398, -20.835680
  740.191, -20.738821
  748.067, -20.669964
  756.027, -20.663555
  764.071, -20.686403
  772.201, -20.668217
  780.418, -20.627230
  788.722, -20.618462
  797.115, -20.607988
  805.597, -20.566944
  814.169, -20.503370
  822.832, -20.495005
  831.587, -20.516855
  840.436, -20.507862
  849.379, -20.417463
  858.417, -20.295929
  867.551, -20.153496
  876.782, -20.039423
  886.111, -19.993633
  895.540, -20.020510
  905.069, -19.999918
  914.700, -19.918129
  924.433, -19.802507
  934.269, -19.684069
  944.210, -19.572691
  954.257, -19.506273
  964.411, -19.445982
  974.673, -19.366138
  985.044, -19.280825
  995.526, -19.227203
 1006.119, -19.116850
 1016.824, -18.979670
 1027.644, -18.822983
 1038.579, -18.715633
 1049.630, -18.617943
 1060.799, -18.543240
 1072.086, -18.473633
 1083.494, -18.395216
 1095.023, -18.309429
 1106.674, -18.226751
 1118.450, -18.135527
 1130.351, -18.027767
 1142.379, -17.907427
 1154.534, -17.789282
 1166.819, -17.687132
 1179.235, -17.562483
 1191.783, -17.424532
 1204.464, -17.290184
 1217.280, -17.210238
 1230.233, -17.138004
 1243.323, -17.078928
 1256.553, -16.959854
 1269.923, -16.822828
 1283.436, -16.683769
 1297.093, -16.602253
 1310.895, -16.562332
 1324.843, -16.477110
 1338.940, -16.351709
 1353.188, -16.209806
 1367.586, -16.111958
 1382.138, -15.990379
 1396.845, -15.869523
 1411.708, -15.741944
 1426.730, -15.639199
 1441.911, -15.554925
 1457.254, -15.484570
 1472.760, -15.401925
 1488.431, -15.271537
 1504.269, -15.111707
 1520.275, -14.970380
 1536.452, -14.863693
 1552.801, -14.748384
 1569.323, -14.640185
 1586.022, -14.513961
 1602.898, -14.413685
 1619.954, -14.292118
 1637.191, -14.185945
 1654.612, -14.061278
 1672.218, -13.918690
 1690.011, -13.774731
 1707.994, -13.635620
 1726.168, -13.512796
 1744.536, -13.363847
 1763.099, -13.225363
 1781.859, -13.081483
 1800.819, -12.964617
 1819.981, -12.853641
 1839.347, -12.728583
 1858.918, -12.587268
 1878.698, -12.434126
 1898.689, -12.289447
 1918.892, -12.172750
 1939.310, -12.064225
 1959.946, -11.951350
 1980.801, -11.816010
 2001.878, -11.664238
 2023.179, -11.515324
 2044.707, -11.398843
 2066.464, -11.316226
 2088.452, -11.214956
 2110.674, -11.084292
 2133.133, -10.954602
 2155.831, -10.853659
 2178.771, -10.747993
 2201.954, -10.654276
 2225.384, -10.584384
 2249.063, -10.502651
 2272.995, -10.453285
 2297.181, -10.399202
 2321.624, -10.367281
 2346.328, -10.304007
 2371.294, -10.252256
 2396.526, -10.204899
 2422.027, -10.166530
 2447.798, -10.159614
 2473.844, -10.158911
 2500.168, -10.137459
 2526.771, -10.125463
 2553.657, -10.122302
 2580.830, -10.132584
 2608.291, -10.131968
 2636.045, -10.138420
 2664.094, -10.173217
 2692.442, -10.231409
 2721.091, -10.287655
 2750.045, -10.317834
 2779.307, -10.345550
 2808.881, -10.388517
 2838.769, -10.400289
 2868.975, -10.405499
 2899.503, -10.443082
 2930.355, -10.485271
 2961.536, -10.493753
 2993.049, -10.461605
 3024.896, -10.458922
 3057.083, -10.488242
 3089.612, -10.558157
 3122.488, -10.597040
 3155.713, -10.594846
 3189.292, -10.546393
 3223.228, -10.515563
 3257.525, -10.557801
 3292.187, -10.627806
 3327.218, -10.671320
 3362.621, -10.667048
 3398.402, -10.668752
 3434.563, -10.744123
 3471.108, -10.814476
 3508.043, -10.886168
 3545.371, -10.948947
 3583.096, -11.023324
 3621.222, -11.079879
 3659.754, -11.088376
 3698.696, -11.079850
 3738.052, -11.068998
 3777.827, -11.085239
 3818.026, -11.129730
 3858.652, -11.159838
 3899.710, -11.160484
 3941.206, -11.154565
 3983.142, -11.193504
 4025.525, -11.259352
 4068.360, -11.355363
 4111.649, -11.433463
 4155.400, -11.525235
 4199.616, -11.607213
 4244.302, -11.696576
 4289.464, -11.718740
 4335.106, -11.752265
 4381.235, -11.764983
 4427.854, -11.824594
 4474.969, -11.847917
 4522.585, -11.870420
 4570.708, -11.856529
 4619.343, -11.829535
 4668.496, -11.825257
 4718.171, -11.819316
 4768.376, -11.833160
 4819.114, -11.829967
 4870.393, -11.854425
 4922.216, -11.846879
 4974.592, -11.847277
 5027.524, -11.833117
 5081.021, -11.877047
 5135.085, -11.928691
 5189.726, -11.976931
 5244.948, -11.988293
 5300.757, -12.000273
 5357.161, -12.005027
 5414.164, -12.046135
 5471.774, -12.085558
 5529.997, -12.115631
 5588.839, -12.128891
 5648.308, -12.111957
 5708.409, -12.126321
 5769.150, -12.134006
 5830.538, -12.146872
 5892.578, -12.133321
 5955.279, -12.145148
 6018.646, -12.181993
 6082.688, -12.241076
 6147.412, -12.302173
 6212.824, -12.351739
 6278.932, -12.389818
 6345.744, -12.397780
 6413.267, -12.435363
 6481.507, -12.453165
 6550.475, -12.486503
 6620.176, -12.471877
 6690.619, -12.470562
 6761.811, -12.452569
 6833.760, -12.463977
 6906.476, -12.408560
 6979.965, -12.405381
 7054.236, -12.396713
 7129.297, -12.380887
 7205.157, -12.334841
 7281.825, -12.264443
 7359.308, -12.190808
 7437.615, -12.111780
 7516.756, -12.020422
 7596.739, -11.852970
 7677.572, -11.650775
 7759.267, -11.500395
 7841.830, -11.491085
 7925.271, -11.551768
 8009.601, -11.732543
 8094.828, -11.984509
 8180.962, -12.372787
 8268.013, -12.818748
 8355.989, -13.321268
 8444.902, -13.788941
 8534.761, -14.233362
 8625.576, -14.595089
 8717.357, -14.896865
 8810.115, -15.128689
 8903.860, -15.375595
 8998.603, -15.612783
 9094.354, -15.859396
 9191.123, -16.097380
 9288.922, -16.337208
 9387.762, -16.554018
 9487.653, -16.738379
 9588.607, -16.893246
 9690.636, -17.018938
 9793.750, -17.092686
 9897.962, -17.170614
10003.282, -17.240629
10109.723, -17.274702
10217.297, -17.304520
10326.015, -17.283813
10435.890, -17.237579
10546.934, -17.083052
10659.160, -16.940083
10772.580, -16.792496
10887.206, -16.652903
11003.053, -16.475098
11120.132, -16.277308
11238.457, -16.088678
11358.041, -15.893338
11478.897, -15.712228
11601.040, -15.567808
11724.481, -15.456916
11849.237, -15.508823
11975.320, -15.599723
12102.745, -15.846182
12231.525, -16.204590
12361.677, -16.947144
12493.212, -17.991562
12626.147, -19.233986
12760.497, -20.370794
12896.277, -21.265663
13033.501, -21.902662
13172.186, -22.395233
13312.346, -22.786863
13453.997, -23.097729
13597.155, -23.356766
13741.838, -23.595188
13888.059, -23.794941
14035.836, -23.791645
14185.187, -23.633209
14336.125, -23.277426
14488.670, -22.793562
14642.839, -22.176403
14798.647, -21.504095
14956.113, -20.765034
15115.256, -20.046091
15276.091, -19.416178
15438.638, -19.031855
15602.915, -19.063126
15768.939, -19.414324
15936.730, -19.746008
16106.307, -19.816904
16277.688, -19.591284
16450.893, -19.423750
16625.939, -19.390921
16802.850, -19.682106
16981.643, -20.055073
17162.336, -20.653730
17344.955, -21.429253
17529.516, -22.522062
17716.039, -23.679974
17904.549, -24.770277
18095.064, -25.773476
18287.607, -26.716698
18482.199, -27.473730
18678.859, -28.137186
18877.615, -28.624325
19078.484, -28.976463
19281.490, -29.134115
19486.656, -29.115740
19694.008, -29.009310
19903.563, -28.767998
20115.350, -32.031708
20329.389, -32.067432
20545.705, -32.430885
20764.324, -33.274174
20985.270, -34.927452
21208.564, -37.294968
21434.236, -40.468376
21662.311, -44.290550
21892.811, -48.583336
22125.764, -52.808266
22361.195, -56.881378
22599.131, -60.347481
22839.600, -62.780094
23082.627, -64.540710
23328.240, -65.688858
23576.467, -67.571548
23827.334, -68.363846
