Frequency(Hz),   Magnitude(dB)
   11.804, -6.261485
   11.929, -6.351116
   12.056, -6.482982
   12.184, -6.619540
   12.314, -6.755282
   12.445, -6.890323
   12.578, -7.024802
   12.711, -7.158850
   12.847, -7.292603
   12.983, -7.426044
   13.122, -7.558972
   13.261, -7.691170
   13.402, -7.822567
   13.545, -7.953264
   13.689, -8.083387
   13.835, -8.213060
   13.982, -8.342348
   14.131, -8.471318
   14.281, -8.599809
   14.433, -8.727586
   14.587, -8.854436
   14.742, -8.980294
   14.899, -9.105325
   15.057, -9.229671
   15.217, -9.353377
   15.379, -9.476322
   15.543, -9.598364
   15.708, -9.719380
   15.875, -9.839308
   16.044, -9.958092
   16.215, -10.075708
   16.388, -10.192225
   16.562, -10.307697
   16.738, -10.422091
   16.916, -10.535158
   17.096, -10.646641
   17.278, -10.756419
   17.462, -10.864508
   17.648, -10.970873
   17.836, -11.075384
   18.025, -11.177792
   18.217, -11.277916
   18.411, -11.375731
   18.607, -11.471275
   18.805, -11.564528
   19.005, -11.655506
   19.207, -11.744135
   19.412, -11.830017
   19.618, -11.912657
   19.827, -11.991901
   20.038, -12.067849
   20.251, -12.140521
   20.467, -12.209740
   20.684, -12.275259
   20.905, -12.336913
   21.127, -12.394642
   21.352, -12.448388
   21.579, -12.497891
   21.809, -12.542751
   22.041, -12.582579
   22.275, -12.617124
   22.512, -12.646111
   22.752, -12.669380
   22.994, -12.686852
   23.239, -12.698367
   23.486, -12.703219
   23.736, -12.700542
   23.988, -12.689696
   24.244, -12.670661
   24.501, -12.643632
   24.762, -12.608726
   25.026, -12.566030
   25.292, -12.515671
   25.561, -12.457966
   25.833, -12.393286
   26.108, -12.321936
   26.386, -12.243951
   26.667, -12.159344
   26.950, -12.068515
   27.237, -11.972193
   27.527, -11.871034
   27.820, -11.765313
   28.116, -11.655293
   28.415, -11.541380
   28.717, -11.424163
   29.023, -11.304335
   29.332, -11.182573
   29.644, -11.059608
   29.959, -10.936178
   30.278, -10.813033
   30.600, -10.690779
   30.926, -10.569986
   31.255, -10.451601
   31.587, -10.336843
   31.924, -10.226871
   32.263, -10.122663
   32.607, -10.025215
   32.953, -9.935625
   33.304, -9.855105
   33.658, -9.784951
   34.017, -9.726629
   34.379, -9.681808
   34.744, -9.653159
   35.114, -9.651877
   35.488, -9.677395
   35.865, -9.722077
   36.247, -9.770420
   36.633, -9.819578
   37.022, -9.869372
   37.416, -9.919550
   37.815, -9.969894
   38.217, -10.020547
   38.624, -10.071838
   39.035, -10.124077
   39.450, -10.177297
   39.870, -10.231376
   40.294, -10.286185
   40.723, -10.341731
   41.156, -10.398087
   41.594, -10.455312
   42.036, -10.513327
   42.484, -10.571978
   42.936, -10.631174
   43.393, -10.691007
   43.854, -10.751625
   44.321, -10.813107
   44.793, -10.875428
   45.269, -10.938510
   45.751, -11.002484
   46.238, -11.067547
   46.730, -11.133294
   47.227, -11.199360
   47.730, -11.265745
   48.237, -11.333014
   48.751, -11.401258
   49.269, -11.470355
   49.794, -11.540475
   50.323, -11.611803
   50.859, -11.684356
   51.400, -11.757953
   51.947, -11.832420
   52.500, -11.907554
   53.058, -11.983127
   53.623, -12.059036
   54.194, -12.135648
   54.770, -12.213416
   55.353, -12.292229
   55.942, -12.371319
   56.537, -12.449949
   57.139, -12.527992
   57.747, -12.605302
   58.361, -12.679427
   58.982, -12.748559
   59.610, -12.813192
   60.244, -12.876462
   60.885, -12.940021
   61.533, -13.003478
   62.188, -13.066351
   62.850, -13.128611
   63.518, -13.190357
   64.194, -13.251696
   64.877, -13.312737
   65.568, -13.373595
   66.265, -13.434230
   66.970, -13.494561
   67.683, -13.554518
   68.403, -13.614322
   69.131, -13.674314
   69.867, -13.735271
   70.610, -13.797312
   71.361, -13.859357
   72.121, -13.919875
   72.888, -13.978121
   73.664, -14.034589
   74.448, -14.089931
   75.240, -14.144876
   76.040, -14.200003
   76.849, -14.255678
   77.667, -14.312224
   78.494, -14.370153
   79.329, -14.430335
   80.173, -14.493736
   81.026, -14.561678
   81.888, -14.640512
   82.759, -14.735681
   83.640, -14.849700
   84.530, -14.979008
   85.430, -15.120794
   86.339, -15.272499
   87.257, -15.430821
   88.186, -15.592244
   89.124, -15.753566
   90.072, -15.911682
   91.031, -16.063377
   91.999, -16.205280
   92.978, -16.330723
   93.968, -16.429234
   94.968, -16.502779
   95.978, -16.561687
   96.999, -16.619045
   98.032, -16.675917
   99.075, -16.732277
  100.129, -16.788309
  101.194, -16.844156
  102.271, -16.899923
  103.359, -16.955706
  104.459, -17.011656
  105.571, -17.068386
  106.694, -17.125824
  107.829, -17.183775
  108.977, -17.241722
  110.136, -17.299902
  111.308, -17.358213
  112.492, -17.416384
  113.689, -17.474195
  114.899, -17.531387
  116.122, -17.586639
  117.357, -17.633427
  118.606, -17.666946
  119.868, -17.685995
  121.144, -17.695759
  122.433, -17.700319
  123.735, -17.703615
  125.052, -17.709406
  126.383, -17.721529
  127.727, -17.743124
  129.087, -17.776978
  130.460, -17.828878
  131.848, -17.902843
  133.251, -17.998337
  134.669, -18.106632
  136.102, -18.216862
  137.550, -18.317915
  139.014, -18.397367
  140.493, -18.421585
  141.988, -18.374159
  143.499, -18.259827
  145.026, -18.110834
  146.569, -17.946524
  148.129, -17.782894
  149.705, -17.636482
  151.298, -17.523251
  152.908, -17.445524
  154.535, -17.392956
  156.179, -17.350914
  157.841, -17.315800
  159.520, -17.291399
  161.218, -17.281506
  162.933, -17.282883
  164.667, -17.286955
  166.419, -17.287874
  168.190, -17.295818
  169.979, -17.329494
  171.788, -17.402750
  173.616, -17.510035
  175.463, -17.640177
  177.330, -17.783884
  179.217, -17.929623
  181.124, -18.062290
  183.052, -18.171156
  184.999, -18.252705
  186.968, -18.302046
  188.957, -18.314537
  190.968, -18.293493
  193.000, -18.251944
  195.054, -18.209084
  197.129, -18.185764
  199.227, -18.205101
  201.347, -18.279354
  203.489, -18.402872
  205.654, -18.550583
  207.843, -18.693396
  210.054, -18.803411
  212.289, -18.862749
  214.548, -18.872704
  216.831, -18.853310
  219.138, -18.834648
  221.470, -18.854656
  223.827, -18.934061
  226.208, -19.066744
  228.615, -19.221153
  231.048, -19.374443
  233.506, -19.522747
  235.991, -19.674974
  238.502, -19.838915
  241.040, -20.012144
  243.605, -20.182505
  246.197, -20.314701
  248.816, -20.396816
  251.464, -20.437668
  254.140, -20.473974
  256.844, -20.519993
  259.577, -20.582418
  262.339, -20.659950
  265.130, -20.743496
  267.952, -20.811819
  270.803, -20.845514
  273.684, -20.842093
  276.596, -20.813068
  279.540, -20.769508
  282.514, -20.711315
  285.520, -20.639196
  288.558, -20.561111
  291.629, -20.499916
  294.732, -20.479095
  297.868, -20.499519
  301.037, -20.533924
  304.241, -20.541046
  307.478, -20.502735
  310.750, -20.430954
  314.056, -20.359228
  317.398, -20.314064
  320.775, -20.300941
  324.189, -20.298761
  327.638, -20.264179
  331.124, -20.167955
  334.648, -20.027086
  338.209, -19.909285
  341.807, -19.859995
  345.444, -19.873476
  349.120, -19.905832
  352.835, -19.927019
  356.589, -19.933531
  360.384, -19.941999
  364.218, -19.980679
  368.094, -20.057898
  372.011, -20.151434
  375.969, -20.221415
  379.970, -20.257759
  384.013, -20.293642
  388.099, -20.370190
  392.228, -20.494289
  396.402, -20.642241
  400.620, -20.790718
  404.883, -20.933329
  409.191, -21.041883
  413.545, -21.089733
  417.945, -21.097818
  422.393, -21.133074
  426.887, -21.225903
  431.429, -21.350965
  436.020, -21.468237
  440.660, -21.556318
  445.348, -21.537642
  450.087, -21.389048
  454.876, -21.188353
  459.717, -21.045170
  464.608, -20.978378
  469.552, -20.946634
  474.548, -20.924450
  479.598, -20.866224
  484.701, -20.744236
  489.858, -20.592348
  495.071, -20.471691
  500.339, -20.409346
  505.663, -20.387983
  511.043, -20.396158
  516.481, -20.427580
  521.977, -20.479868
  527.531, -20.553202
  533.144, -20.641375
  538.817, -20.719090
  544.550, -20.774817
  550.345, -20.847063
  556.201, -20.965464
  562.119, -21.101719
  568.100, -21.202513
  574.145, -21.258562
  580.255, -21.291059
  586.429, -21.300678
  592.669, -21.293932
  598.975, -21.287966
  605.349, -21.289236
  611.790, -21.285919
  618.300, -21.263248
  624.879, -21.216539
  631.528, -21.130753
  638.248, -21.004919
  645.039, -20.866085
  651.903, -20.759598
  658.839, -20.711128
  665.850, -20.692619
  672.935, -20.673922
  680.095, -20.639439
  687.332, -20.615810
  694.645, -20.627504
  702.037, -20.685421
  709.507, -20.765827
  717.057, -20.808508
  724.686, -20.833351
  732.398, -20.872158
  740.191, -20.943727
  748.067, -20.979956
  756.027, -20.976656
  764.071, -20.993086
  772.201, -21.005388
  780.418, -20.956953
  788.722, -20.803989
  797.115, -20.672438
  805.597, -20.586618
  814.169, -20.533878
  822.832, -20.452271
  831.587, -20.324986
  840.436, -20.207865
  849.379, -20.135815
  858.417, -20.121445
  867.551, -20.123503
  876.782, -20.131596
  886.111, -20.169767
  895.540, -20.213133
  905.069, -20.208696
  914.700, -20.145390
  924.433, -20.060200
  934.269, -19.973080
  944.210, -19.863791
  954.257, -19.720802
  964.411, -19.574671
  974.673, -19.436434
  985.044, -19.261370
  995.526, -19.061760
 1006.119, -18.924494
 1016.824, -18.850170
 1027.644, -18.815859
 1038.579, -18.769354
 1049.630, -18.732298
 1060.799, -18.689123
 1072.086, -18.635061
 1083.494, -18.544409
 1095.023, -18.426531
 1106.674, -18.309425
 1118.450, -18.198965
 1130.351, -18.076777
 1142.379, -17.930677
 1154.534, -17.791380
 1166.819, -17.671129
 1179.235, -17.546499
 1191.783, -17.437683
 1204.464, -17.370388
 1217.280, -17.332537
 1230.233, -17.285719
 1243.323, -17.208513
 1256.553, -17.102877
 1269.923, -16.962637
 1283.436, -16.797152
 1297.093, -16.658873
 1310.895, -16.547550
 1324.843, -16.441557
 1338.940, -16.343794
 1353.188, -16.277174
 1367.586, -16.196596
 1382.138, -16.110962
 1396.845, -16.019688
 1411.708, -15.955853
 1426.730, -15.837745
 1441.911, -15.690909
 1457.254, -15.524958
 1472.760, -15.400619
 1488.431, -15.252330
 1504.269, -15.127175
 1520.275, -15.021144
 1536.452, -14.957544
 1552.801, -14.871608
 1569.323, -14.746549
 1586.022, -14.599114
 1602.898, -14.444460
 1619.954, -14.291384
 1637.191, -14.156648
 1654.612, -14.034442
 1672.218, -13.941950
 1690.011, -13.815329
 1707.994, -13.704657
 1726.168, -13.573174
 1744.536, -13.447951
 1763.099, -13.271015
 1781.859, -13.107518
 1800.819, -12.962833
 1819.981, -12.849597
 1839.347, -12.748115
 1858.918, -12.640616
 1878.698, -12.510506
 1898.689, -12.344703
 1918.892, -12.180846
 1939.310, -12.043283
 1959.946, -11.921023
 1980.801, -11.818109
 2001.878, -11.703062
 2023.179, -11.599867
 2044.707, -11.492742
 2066.464, -11.375239
 2088.452, -11.226515
 2110.674, -11.072305
 2133.133, -10.960610
 2155.831, -10.898901
 2178.771, -10.845983
 2201.954, -10.783422
 2225.384, -10.681077
 2249.063, -10.575369
 2272.995, -10.466751
 2297.181, -10.397505
 2321.624, -10.330011
 2346.328, -10.277075
 2371.294, -10.239639
 2396.526, -10.209143
 2422.027, -10.164002
 2447.798, -10.135781
 2473.844, -10.151939
 2500.168, -10.163408
 2526.771, -10.160443
 2553.657, -10.153964
 2580.830, -10.180162
 2608.291, -10.190027
 2636.045, -10.220789
 2664.094, -10.266572
 2692.442, -10.335579
 2721.091, -10.378263
 2750.045, -10.384171
 2779.307, -10.414987
 2808.881, -10.474272
 2838.769, -10.530990
 2868.975, -10.517165
 2899.503, -10.513568
 2930.355, -10.540470
 2961.536, -10.596369
 2993.049, -10.599344
 3024.896, -10.595050
 3057.083, -10.607404
 3089.612, -10.630550
 3122.488, -10.694477
 3155.713, -10.685149
 3189.292, -10.708413
 3223.228, -10.663440
 3257.525, -10.660808
 3292.187, -10.669357
 3327.218, -10.746870
 3362.621, -10.813075
 3398.402, -10.859687
 3434.563, -10.885820
 3471.108, -10.956430
 3508.043, -10.989965
 3545.371, -11.034348
 3583.096, -11.026710
 3621.222, -11.050773
 3659.754, -11.072659
 3698.696, -11.135869
 3738.052, -11.129385
 3777.827, -11.097952
 3818.026, -11.072510
 3858.652, -11.117123
 3899.710, -11.171099
 3941.206, -11.209611
 3983.142, -11.242990
 4025.525, -11.296698
 4068.360, -11.364556
 4111.649, -11.430602
 4155.400, -11.500239
 4199.616, -11.578088
 4244.302, -11.691054
 4289.464, -11.749239
 4335.106, -11.784490
 4381.235, -11.776618
 4427.854, -11.791530
 4474.969, -11.787005
 4522.585, -11.791579
 4570.708, -11.813976
 4619.343, -11.827809
 4668.496, -11.835042
 4718.171, -11.827613
 4768.376, -11.831034
 4819.114, -11.827126
 4870.393, -11.826120
 4922.216, -11.831954
 4974.592, -11.835623
 5027.524, -11.843150
 5081.021, -11.848093
 5135.085, -11.856326
 5189.726, -11.883728
 5244.948, -11.889263
 5300.757, -11.914843
 5357.161, -11.907132
 5414.164, -11.918810
 5471.774, -11.898533
 5529.997, -11.890297
 5588.839, -11.878723
 5648.308, -11.911685
 5708.409, -11.900081
 5769.150, -11.874721
 5830.538, -11.881111
 5892.578, -11.893453
 5955.279, -11.879874
 6018.646, -11.862788
 6082.688, -11.953962
 6147.412, -12.051890
 6212.824, -12.080047
 6278.932, -12.074018
 6345.744, -12.054915
 6413.267, -12.076343
 6481.507, -12.058010
 6550.475, -12.065217
 6620.176, -12.039090
 6690.619, -12.038919
 6761.811, -11.981874
 6833.760, -11.908338
 6906.476, -11.781595
 6979.965, -11.680551
 7054.236, -11.610027
 7129.297, -11.564036
 7205.157, -11.507957
 7281.825, -11.414338
 7359.308, -11.308021
 7437.615, -11.176779
 7516.756, -10.995070
 7596.739, -10.839548
 7677.572, -10.747130
 7759.267, -10.785149
 7841.830, -10.929857
 7925.271, -11.238076
 8009.601, -11.726716
 8094.828, -12.394732
 8180.962, -13.145091
 8268.013, -13.945868
 8355.989, -14.638321
 8444.902, -15.198043
 8534.761, -15.583698
 8625.576, -15.900440
 8717.357, -16.147217
 8810.115, -16.348200
 8903.860, -16.556406
 8998.603, -16.754351
 9094.354, -16.919825
 9191.123, -17.057796
 9288.922, -17.175097
 9387.762, -17.297388
 9487.653, -17.382586
 9588.607, -17.460854
 9690.636, -17.552805
 9793.750, -17.631578
 9897.962, -17.715525
10003.282, -17.734632
10109.723, -17.706678
10217.297, -17.644981
10326.015, -17.543909
10435.890, -17.422716
10546.934, -17.206810
10659.160, -17.008690
10772.580, -16.859587
10887.206, -16.750530
11003.053, -16.586964
11120.132, -16.382793
11238.457, -16.134350
11358.041, -15.921376
11478.897, -15.754085
11601.040, -15.681734
11724.481, -15.626460
11849.237, -15.626326
11975.320, -15.658193
12102.745, -15.808502
12231.525, -16.131243
12361.677, -16.805313
12493.212, -17.857466
12626.147, -19.120527
12760.497, -20.302053
12896.277, -21.159624
13033.501, -21.826511
13172.186, -22.285980
13312.346, -22.662390
13453.997, -22.893242
13597.155, -23.090862
13741.838, -23.224094
13888.059, -23.331245
14035.836, -23.312939
14185.187, -23.049599
14336.125, -22.579193
14488.670, -21.915657
14642.839, -21.167501
14798.647, -20.343531
14956.113, -19.460884
15115.256, -18.651514
15276.091, -18.056400
15438.638, -17.811838
15602.915, -18.036772
15768.939, -18.569302
15936.730, -19.147720
16106.307, -19.426947
16277.688, -19.598045
16450.893, -19.745195
16625.939, -20.083555
16802.850, -20.498117
16981.643, -21.095894
17162.336, -21.824013
17344.955, -22.614489
17529.516, -23.525528
17716.039, -24.409296
17904.549, -25.282763
18095.064, -26.034496
18287.607, -26.782644
18482.199, -27.409185
18678.859, -27.892941
18877.615, -28.189438
19078.484, -28.343605
19281.490, -28.361506
19486.656, -28.302456
19694.008, -28.056503
19903.563, -27.594940
20115.350, -30.743284
20329.389, -30.972595
20545.705, -31.764030
20764.324, -33.120125
20985.270, -35.111732
21208.564, -37.746040
21434.236, -41.002216
21662.311, -44.955673
21892.811, -49.262028
22125.764, -54.288597
22361.195, -57.785179
22599.131, -60.066071
22839.600, -62.312576
23082.627, -64.724182
23328.240, -66.847084
23576.467, -67.832191
23827.334, -68.016624
